x,y,phi,Ex,Ey
0.000000000000000000e+00,0.000000000000000000e+00,0.000000000000000000e+00,0.000000000000000000e+00,0.000000000000000000e+00
0.000000000000000000e+00,1.000000000000000000e+00,0.000000000000000000e+00,0.000000000000000000e+00,-0.000000000000000000e+00
0.000000000000000000e+00,2.000000000000000000e+00,0.000000000000000000e+00,0.000000000000000000e+00,-0.000000000000000000e+00
0.000000000000000000e+00,3.000000000000000000e+00,0.000000000000000000e+00,0.000000000000000000e+00,-0.000000000000000000e+00
0.000000000000000000e+00,4.000000000000000000e+00,0.000000000000000000e+00,0.000000000000000000e+00,-0.000000000000000000e+00
0.000000000000000000e+00,5.000000000000000000e+00,0.000000000000000000e+00,0.000000000000000000e+00,-0.000000000000000000e+00
0.000000000000000000e+00,6.000000000000000000e+00,0.000000000000000000e+00,0.000000000000000000e+00,-0.000000000000000000e+00
0.000000000000000000e+00,7.000000000000000000e+00,0.000000000000000000e+00,0.000000000000000000e+00,-0.000000000000000000e+00
0.000000000000000000e+00,8.000000000000000000e+00,0.000000000000000000e+00,0.000000000000000000e+00,-0.000000000000000000e+00
0.000000000000000000e+00,9.000000000000000000e+00,0.000000000000000000e+00,0.000000000000000000e+00,-0.000000000000000000e+00
0.000000000000000000e+00,1.000000000000000000e+01,0.000000000000000000e+00,0.000000000000000000e+00,-0.000000000000000000e+00
0.000000000000000000e+00,1.100000000000000000e+01,0.000000000000000000e+00,0.000000000000000000e+00,-0.000000000000000000e+00
0.000000000000000000e+00,1.200000000000000000e+01,0.000000000000000000e+00,0.000000000000000000e+00,-0.000000000000000000e+00
0.000000000000000000e+00,1.300000000000000000e+01,0.000000000000000000e+00,0.000000000000000000e+00,-0.000000000000000000e+00
0.000000000000000000e+00,1.400000000000000000e+01,0.000000000000000000e+00,0.000000000000000000e+00,-0.000000000000000000e+00
0.000000000000000000e+00,1.500000000000000000e+01,0.000000000000000000e+00,0.000000000000000000e+00,-0.000000000000000000e+00
0.000000000000000000e+00,1.600000000000000000e+01,0.000000000000000000e+00,0.000000000000000000e+00,-0.000000000000000000e+00
0.000000000000000000e+00,1.700000000000000000e+01,0.000000000000000000e+00,0.000000000000000000e+00,-0.000000000000000000e+00
0.000000000000000000e+00,1.800000000000000000e+01,0.000000000000000000e+00,0.000000000000000000e+00,-0.000000000000000000e+00
0.000000000000000000e+00,1.900000000000000000e+01,0.000000000000000000e+00,0.000000000000000000e+00,-0.000000000000000000e+00
0.000000000000000000e+00,2.000000000000000000e+01,0.000000000000000000e+00,0.000000000000000000e+00,-0.000000000000000000e+00
0.000000000000000000e+00,2.100000000000000000e+01,0.000000000000000000e+00,0.000000000000000000e+00,-0.000000000000000000e+00
0.000000000000000000e+00,2.200000000000000000e+01,0.000000000000000000e+00,0.000000000000000000e+00,-0.000000000000000000e+00
0.000000000000000000e+00,2.300000000000000000e+01,0.000000000000000000e+00,0.000000000000000000e+00,-0.000000000000000000e+00
0.000000000000000000e+00,2.400000000000000000e+01,0.000000000000000000e+00,0.000000000000000000e+00,-0.000000000000000000e+00
0.000000000000000000e+00,2.500000000000000000e+01,0.000000000000000000e+00,0.000000000000000000e+00,-0.000000000000000000e+00
0.000000000000000000e+00,2.600000000000000000e+01,0.000000000000000000e+00,0.000000000000000000e+00,-0.000000000000000000e+00
0.000000000000000000e+00,2.700000000000000000e+01,0.000000000000000000e+00,0.000000000000000000e+00,-0.000000000000000000e+00
0.000000000000000000e+00,2.800000000000000000e+01,0.000000000000000000e+00,0.000000000000000000e+00,-0.000000000000000000e+00
0.000000000000000000e+00,2.900000000000000000e+01,0.000000000000000000e+00,0.000000000000000000e+00,-0.000000000000000000e+00
0.000000000000000000e+00,3.000000000000000000e+01,0.000000000000000000e+00,0.000000000000000000e+00,-0.000000000000000000e+00
0.000000000000000000e+00,3.100000000000000000e+01,0.000000000000000000e+00,0.000000000000000000e+00,-0.000000000000000000e+00
0.000000000000000000e+00,3.200000000000000000e+01,0.000000000000000000e+00,0.000000000000000000e+00,-0.000000000000000000e+00
0.000000000000000000e+00,3.300000000000000000e+01,0.000000000000000000e+00,0.000000000000000000e+00,-0.000000000000000000e+00
0.000000000000000000e+00,3.400000000000000000e+01,0.000000000000000000e+00,0.000000000000000000e+00,-0.000000000000000000e+00
0.000000000000000000e+00,3.500000000000000000e+01,0.000000000000000000e+00,0.000000000000000000e+00,-0.000000000000000000e+00
0.000000000000000000e+00,3.600000000000000000e+01,0.000000000000000000e+00,0.000000000000000000e+00,-0.000000000000000000e+00
0.000000000000000000e+00,3.700000000000000000e+01,0.000000000000000000e+00,0.000000000000000000e+00,-0.000000000000000000e+00
0.000000000000000000e+00,3.800000000000000000e+01,0.000000000000000000e+00,0.000000000000000000e+00,-0.000000000000000000e+00
0.000000000000000000e+00,3.900000000000000000e+01,0.000000000000000000e+00,0.000000000000000000e+00,-0.000000000000000000e+00
0.000000000000000000e+00,4.000000000000000000e+01,0.000000000000000000e+00,0.000000000000000000e+00,-0.000000000000000000e+00
0.000000000000000000e+00,4.100000000000000000e+01,0.000000000000000000e+00,0.000000000000000000e+00,-0.000000000000000000e+00
0.000000000000000000e+00,4.200000000000000000e+01,0.000000000000000000e+00,0.000000000000000000e+00,-0.000000000000000000e+00
0.000000000000000000e+00,4.300000000000000000e+01,0.000000000000000000e+00,0.000000000000000000e+00,-0.000000000000000000e+00
0.000000000000000000e+00,4.400000000000000000e+01,0.000000000000000000e+00,0.000000000000000000e+00,-0.000000000000000000e+00
0.000000000000000000e+00,4.500000000000000000e+01,0.000000000000000000e+00,0.000000000000000000e+00,-0.000000000000000000e+00
0.000000000000000000e+00,4.600000000000000000e+01,0.000000000000000000e+00,0.000000000000000000e+00,-0.000000000000000000e+00
0.000000000000000000e+00,4.700000000000000000e+01,0.000000000000000000e+00,0.000000000000000000e+00,-0.000000000000000000e+00
0.000000000000000000e+00,4.800000000000000000e+01,0.000000000000000000e+00,0.000000000000000000e+00,-0.000000000000000000e+00
0.000000000000000000e+00,4.900000000000000000e+01,0.000000000000000000e+00,0.000000000000000000e+00,-0.000000000000000000e+00
0.000000000000000000e+00,5.000000000000000000e+01,0.000000000000000000e+00,0.000000000000000000e+00,-0.000000000000000000e+00
0.000000000000000000e+00,5.100000000000000000e+01,0.000000000000000000e+00,0.000000000000000000e+00,-0.000000000000000000e+00
0.000000000000000000e+00,5.200000000000000000e+01,0.000000000000000000e+00,0.000000000000000000e+00,-0.000000000000000000e+00
0.000000000000000000e+00,5.300000000000000000e+01,0.000000000000000000e+00,0.000000000000000000e+00,-0.000000000000000000e+00
0.000000000000000000e+00,5.400000000000000000e+01,0.000000000000000000e+00,0.000000000000000000e+00,-0.000000000000000000e+00
0.000000000000000000e+00,5.500000000000000000e+01,0.000000000000000000e+00,0.000000000000000000e+00,-0.000000000000000000e+00
0.000000000000000000e+00,5.600000000000000000e+01,0.000000000000000000e+00,0.000000000000000000e+00,-0.000000000000000000e+00
0.000000000000000000e+00,5.700000000000000000e+01,0.000000000000000000e+00,0.000000000000000000e+00,-0.000000000000000000e+00
0.000000000000000000e+00,5.800000000000000000e+01,0.000000000000000000e+00,0.000000000000000000e+00,-0.000000000000000000e+00
0.000000000000000000e+00,5.900000000000000000e+01,0.000000000000000000e+00,0.000000000000000000e+00,-0.000000000000000000e+00
0.000000000000000000e+00,6.000000000000000000e+01,0.000000000000000000e+00,0.000000000000000000e+00,-0.000000000000000000e+00
0.000000000000000000e+00,6.100000000000000000e+01,0.000000000000000000e+00,0.000000000000000000e+00,-0.000000000000000000e+00
0.000000000000000000e+00,6.200000000000000000e+01,0.000000000000000000e+00,0.000000000000000000e+00,-0.000000000000000000e+00
0.000000000000000000e+00,6.300000000000000000e+01,0.000000000000000000e+00,0.000000000000000000e+00,-0.000000000000000000e+00
0.000000000000000000e+00,6.400000000000000000e+01,0.000000000000000000e+00,0.000000000000000000e+00,-0.000000000000000000e+00
0.000000000000000000e+00,6.500000000000000000e+01,0.000000000000000000e+00,0.000000000000000000e+00,-0.000000000000000000e+00
0.000000000000000000e+00,6.600000000000000000e+01,0.000000000000000000e+00,0.000000000000000000e+00,-0.000000000000000000e+00
0.000000000000000000e+00,6.700000000000000000e+01,0.000000000000000000e+00,0.000000000000000000e+00,-0.000000000000000000e+00
0.000000000000000000e+00,6.800000000000000000e+01,0.000000000000000000e+00,0.000000000000000000e+00,-0.000000000000000000e+00
0.000000000000000000e+00,6.900000000000000000e+01,0.000000000000000000e+00,0.000000000000000000e+00,-0.000000000000000000e+00
0.000000000000000000e+00,7.000000000000000000e+01,0.000000000000000000e+00,0.000000000000000000e+00,-0.000000000000000000e+00
0.000000000000000000e+00,7.100000000000000000e+01,0.000000000000000000e+00,0.000000000000000000e+00,-0.000000000000000000e+00
0.000000000000000000e+00,7.200000000000000000e+01,0.000000000000000000e+00,0.000000000000000000e+00,-0.000000000000000000e+00
0.000000000000000000e+00,7.300000000000000000e+01,0.000000000000000000e+00,0.000000000000000000e+00,-0.000000000000000000e+00
0.000000000000000000e+00,7.400000000000000000e+01,0.000000000000000000e+00,0.000000000000000000e+00,-0.000000000000000000e+00
0.000000000000000000e+00,7.500000000000000000e+01,0.000000000000000000e+00,0.000000000000000000e+00,-0.000000000000000000e+00
0.000000000000000000e+00,7.600000000000000000e+01,0.000000000000000000e+00,0.000000000000000000e+00,-0.000000000000000000e+00
0.000000000000000000e+00,7.700000000000000000e+01,0.000000000000000000e+00,0.000000000000000000e+00,-0.000000000000000000e+00
0.000000000000000000e+00,7.800000000000000000e+01,0.000000000000000000e+00,0.000000000000000000e+00,-0.000000000000000000e+00
0.000000000000000000e+00,7.900000000000000000e+01,0.000000000000000000e+00,0.000000000000000000e+00,-0.000000000000000000e+00
0.000000000000000000e+00,8.000000000000000000e+01,0.000000000000000000e+00,0.000000000000000000e+00,-0.000000000000000000e+00
0.000000000000000000e+00,8.100000000000000000e+01,0.000000000000000000e+00,0.000000000000000000e+00,-0.000000000000000000e+00
0.000000000000000000e+00,8.200000000000000000e+01,0.000000000000000000e+00,0.000000000000000000e+00,-0.000000000000000000e+00
0.000000000000000000e+00,8.300000000000000000e+01,0.000000000000000000e+00,0.000000000000000000e+00,-0.000000000000000000e+00
0.000000000000000000e+00,8.400000000000000000e+01,0.000000000000000000e+00,0.000000000000000000e+00,-0.000000000000000000e+00
0.000000000000000000e+00,8.500000000000000000e+01,0.000000000000000000e+00,0.000000000000000000e+00,-0.000000000000000000e+00
0.000000000000000000e+00,8.600000000000000000e+01,0.000000000000000000e+00,0.000000000000000000e+00,-0.000000000000000000e+00
0.000000000000000000e+00,8.700000000000000000e+01,0.000000000000000000e+00,0.000000000000000000e+00,-0.000000000000000000e+00
0.000000000000000000e+00,8.800000000000000000e+01,0.000000000000000000e+00,0.000000000000000000e+00,-0.000000000000000000e+00
0.000000000000000000e+00,8.900000000000000000e+01,0.000000000000000000e+00,0.000000000000000000e+00,-0.000000000000000000e+00
0.000000000000000000e+00,9.000000000000000000e+01,0.000000000000000000e+00,0.000000000000000000e+00,-0.000000000000000000e+00
0.000000000000000000e+00,9.100000000000000000e+01,0.000000000000000000e+00,0.000000000000000000e+00,-0.000000000000000000e+00
0.000000000000000000e+00,9.200000000000000000e+01,0.000000000000000000e+00,0.000000000000000000e+00,-0.000000000000000000e+00
0.000000000000000000e+00,9.300000000000000000e+01,0.000000000000000000e+00,0.000000000000000000e+00,-0.000000000000000000e+00
0.000000000000000000e+00,9.400000000000000000e+01,0.000000000000000000e+00,0.000000000000000000e+00,-0.000000000000000000e+00
0.000000000000000000e+00,9.500000000000000000e+01,0.000000000000000000e+00,0.000000000000000000e+00,-0.000000000000000000e+00
0.000000000000000000e+00,9.600000000000000000e+01,0.000000000000000000e+00,0.000000000000000000e+00,-0.000000000000000000e+00
0.000000000000000000e+00,9.700000000000000000e+01,0.000000000000000000e+00,0.000000000000000000e+00,-0.000000000000000000e+00
0.000000000000000000e+00,9.800000000000000000e+01,0.000000000000000000e+00,0.000000000000000000e+00,-0.000000000000000000e+00
0.000000000000000000e+00,9.900000000000000000e+01,0.000000000000000000e+00,0.000000000000000000e+00,0.000000000000000000e+00
1.000000000000000000e+00,0.000000000000000000e+00,0.000000000000000000e+00,-0.000000000000000000e+00,0.000000000000000000e+00
1.000000000000000000e+00,1.000000000000000000e+00,1.644624223479643901e-11,-1.766554547546991957e-11,-1.766554547546991957e-11
1.000000000000000000e+00,2.000000000000000000e+00,3.533109095093983914e-11,-3.588642844068457922e-11,-1.941891919034301427e-11
1.000000000000000000e+00,3.000000000000000000e+00,5.528408061548246754e-11,-5.935935070355261704e-11,-2.393820463513281727e-11
1.000000000000000000e+00,4.000000000000000000e+00,8.320750022120547368e-11,-8.457954092350342936e-11,-2.906450342301987053e-11
1.000000000000000000e+00,5.000000000000000000e+00,1.134130874615222086e-10,-1.216922626853024088e-10,-3.798388880521429792e-11
1.000000000000000000e+00,6.000000000000000000e+00,1.591752778316340695e-10,-1.619700757528355921e-10,-4.763715269662657407e-11
1.000000000000000000e+00,7.000000000000000000e+00,2.086873928547753567e-10,-2.237449792148645903e-10,-6.294313157916985009e-11
1.000000000000000000e+00,8.000000000000000000e+00,2.850615409899737697e-10,-2.904092632993071134e-10,-7.911568996363664965e-11
1.000000000000000000e+00,9.000000000000000000e+00,3.669187727820486560e-10,-3.930751368830067588e-10,-1.038420317986673508e-10
1.000000000000000000e+00,1.000000000000000000e+01,4.927456045873084713e-10,-5.026000494537831906e-10,-1.294762824021498693e-10
1.000000000000000000e+00,1.100000000000000000e+01,6.258713375863483947e-10,-6.699666913257241803e-10,-1.678699482846596353e-10
1.000000000000000000e+00,1.200000000000000000e+01,8.284855011566277419e-10,-8.460751160232480523e-10,-2.069458427679805989e-10
1.000000000000000000e+00,1.300000000000000000e+01,1.039763023122309592e-09,-1.112214046682201597e-09,-2.645703579972976110e-10
1.000000000000000000e+00,1.400000000000000000e+01,1.357626217151222964e-09,-1.388088309428007533e-09,-3.220945150562608168e-10
1.000000000000000000e+00,1.500000000000000000e+01,1.683952053234831226e-09,-1.800098298833191740e-09,-4.057771458510556492e-10
1.000000000000000000e+00,1.600000000000000000e+01,2.169180508853334262e-09,-2.220399012233279954e-09,-4.875796793866665727e-10
1.000000000000000000e+00,1.700000000000000000e+01,2.659111412008164371e-09,-2.840815068113334487e-09,-6.050891165949708082e-10
1.000000000000000000e+00,1.800000000000000000e+01,3.379358742043275879e-09,-3.462997983069133548e-09,-7.173257292621886497e-10
1.000000000000000000e+00,1.900000000000000000e+01,4.093762870532541671e-09,-4.371155871827450874e-09,-8.766652720632010899e-10
1.000000000000000000e+00,2.000000000000000000e+01,5.132689286169678059e-09,-5.265367739313535475e-09,-1.024936712279982743e-09
1.000000000000000000e+00,2.100000000000000000e+01,6.143636295092507156e-09,-6.556814661456280318e-09,-1.233167989745494861e-09
1.000000000000000000e+00,2.200000000000000000e+01,7.599025265660667780e-09,-7.803503784203524327e-09,-1.421218761590237809e-09
1.000000000000000000e+00,2.300000000000000000e+01,8.986073818272982774e-09,-9.586429866679805374e-09,-1.682804874534799748e-09
1.000000000000000000e+00,2.400000000000000000e+01,1.096463501473026728e-08,-1.127080935472666727e-08,-1.910855734713855356e-09
1.000000000000000000e+00,2.500000000000000000e+01,1.280778528770069349e-08,-1.365856365449586472e-08,-2.225634400878166012e-09
1.000000000000000000e+00,2.600000000000000000e+01,1.541590381648659930e-08,-1.586130627946601446e-08,-2.488535353658900199e-09
1.000000000000000000e+00,2.700000000000000000e+01,1.778485599501849388e-08,-1.896044963857598817e-08,-2.849591263583553321e-09
1.000000000000000000e+00,2.800000000000000000e+01,2.111508634365370594e-08,-2.174454071112542174e-08,-3.135133269529467818e-09
1.000000000000000000e+00,2.900000000000000000e+01,2.405512253407742952e-08,-2.563862803600283039e-08,-3.527003371091539926e-09
1.000000000000000000e+00,3.000000000000000000e+01,2.816909308583678579e-08,-2.903316265111159414e-08,-3.814858276416821904e-09
1.000000000000000000e+00,3.100000000000000000e+01,3.168483908691107333e-08,-3.376350426929978343e-08,-4.212623324857397890e-09
1.000000000000000000e+00,3.200000000000000000e+01,3.659433973555158157e-08,-3.774629229036768510e-08,-4.474438187206462293e-09
1.000000000000000000e+00,3.300000000000000000e+01,4.063371546132399791e-08,-4.329216135380649240e-08,-4.844267205702787662e-09
1.000000000000000000e+00,3.400000000000000000e+01,4.628287414695715690e-08,-4.777408104914420724e-08,-5.045365573957979237e-09
1.000000000000000000e+00,3.500000000000000000e+01,5.072444660923995639e-08,-5.403592710316206980e-08,-5.346933584778100122e-09
1.000000000000000000e+00,3.600000000000000000e+01,5.697674131651335714e-08,-5.885072609332948558e-08,-5.449837172053223455e-09
1.000000000000000000e+00,3.700000000000000000e+01,6.162412095334640330e-08,-6.564055356992286781e-08,-5.640710634820456819e-09
1.000000000000000000e+00,3.800000000000000000e+01,6.825816258615427078e-08,-7.054387787642416012e-08,-5.610299483326960245e-09
1.000000000000000000e+00,3.900000000000000000e+01,7.284471992000032379e-08,-7.758669196215268817e-08,-5.651914497536547738e-09
1.000000000000000000e+00,4.000000000000000000e+01,7.956199158122736626e-08,-8.226725368832040948e-08,-5.461562124149267242e-09
1.000000000000000000e+00,4.100000000000000000e+01,8.376784416829885827e-08,-8.921614813734238602e-08,-5.325909079905751353e-09
1.000000000000000000e+00,4.200000000000000000e+01,9.021380974103886896e-08,-9.332005419642945694e-08,-4.963488690835478833e-09
1.000000000000000000e+00,4.300000000000000000e+01,9.369482154996981594e-08,-9.978517385395044900e-08,-4.639214982858466954e-09
1.000000000000000000e+00,4.400000000000000000e+01,9.949223970675580287e-08,-1.029517776399969119e-07,-4.111629107525341714e-09
1.000000000000000000e+00,4.500000000000000000e+01,1.019180797650204994e-07,-1.085404336040262094e-07,-3.608137134637847991e-09
1.000000000000000000e+00,4.600000000000000000e+01,1.067085139760314989e-07,-1.104452054747456184e-07,-2.943106853626002890e-09
1.000000000000000000e+00,4.700000000000000000e+01,1.078042934722725051e-07,-1.148075526333510664e-07,-2.291463192850564695e-09
1.000000000000000000e+00,4.800000000000000000e+01,1.112914403617326282e-07,-1.152051677244721654e-07,-1.535772071569706196e-09
1.000000000000000000e+00,4.900000000000000000e+01,1.108758376154119175e-07,-1.180778967860198540e-07,-7.858530864817932770e-10
1.000000000000000000e+00,5.000000000000000000e+01,1.128631465346962148e-07,-1.168377643732680122e-07,1.574951886300964693e-21
1.000000000000000000e+00,5.100000000000000000e+01,1.108758376154087676e-07,-1.180778967860162938e-07,7.858530864858100661e-10
1.000000000000000000e+00,5.200000000000000000e+01,1.112914403617245947e-07,-1.152051677244643303e-07,1.535772071575390582e-09
1.000000000000000000e+00,5.300000000000000000e+01,1.078042934722579865e-07,-1.148075526333347743e-07,2.291463192860868057e-09
1.000000000000000000e+00,5.400000000000000000e+01,1.067085139760028586e-07,-1.104452054747176795e-07,2.943106853642883992e-09
1.000000000000000000e+00,5.500000000000000000e+01,1.019180797649722185e-07,-1.085404336039722507e-07,3.608137134669651431e-09
1.000000000000000000e+00,5.600000000000000000e+01,9.949223970666355569e-08,-1.029517776399068220e-07,4.111629107577771730e-09
1.000000000000000000e+00,5.700000000000000000e+01,9.369482154981667503e-08,-9.978517385377966598e-08,4.639214982956405139e-09
1.000000000000000000e+00,5.800000000000000000e+01,9.021380974075074541e-08,-9.332005419614744791e-08,4.963488690995568060e-09
1.000000000000000000e+00,5.900000000000000000e+01,8.376784416782553891e-08,-8.921614813681582269e-08,5.325909080200479114e-09
1.000000000000000000e+00,6.000000000000000000e+01,7.956199158034978718e-08,-8.226725368745962548e-08,5.461562124626206349e-09
1.000000000000000000e+00,6.100000000000000000e+01,7.284471991857312621e-08,-7.758669196056873656e-08,5.651914498401679397e-09
1.000000000000000000e+00,6.200000000000000000e+01,6.825816258354642839e-08,-7.054387787386077372e-08,5.610299484712626737e-09
1.000000000000000000e+00,6.300000000000000000e+01,6.162412094914787274e-08,-6.564055356527387454e-08,5.640710637297244022e-09
1.000000000000000000e+00,6.400000000000000000e+01,5.697674130895194034e-08,-5.885072608588132635e-08,5.449837175979429615e-09
1.000000000000000000e+00,6.500000000000000000e+01,5.072444659718901351e-08,-5.403592708984795595e-08,5.346933591693449157e-09
1.000000000000000000e+00,6.600000000000000000e+01,4.628287412556504203e-08,-4.777408102802913171e-08,5.045365584806535689e-09
1.000000000000000000e+00,6.700000000000000000e+01,4.063371542757594213e-08,-4.329216131660190030e-08,4.844267224532250670e-09
1.000000000000000000e+00,6.800000000000000000e+01,3.659433967650054069e-08,-3.774629223196375754e-08,4.474438216436854619e-09
1.000000000000000000e+00,6.900000000000000000e+01,3.168483899470223289e-08,-3.376350416786103011e-08,4.212623374853501058e-09
1.000000000000000000e+00,7.000000000000000000e+01,2.816909292679353857e-08,-2.903316249350013369e-08,3.814858353212653785e-09
1.000000000000000000e+00,7.100000000000000000e+01,2.405512228827692532e-08,-2.563862776615107711e-08,3.527003500536256435e-09
1.000000000000000000e+00,7.200000000000000000e+01,2.111508592572102570e-08,-2.174454029615250954e-08,3.135133466252467808e-09
1.000000000000000000e+00,7.300000000000000000e+01,1.778485535577198970e-08,-1.896044893817075051e-08,2.849591590363237889e-09
1.000000000000000000e+00,7.400000000000000000e+01,1.541590274499454992e-08,-1.586130521354234644e-08,2.488535844971408678e-09
1.000000000000000000e+00,7.500000000000000000e+01,1.280778366582917235e-08,-1.365856188086352665e-08,2.225635205176321634e-09
1.000000000000000000e+00,7.600000000000000000e+01,1.096463233464190666e-08,-1.127080668360854603e-08,1.910856930938050866e-09
1.000000000000000000e+00,7.700000000000000000e+01,8.986069803953070616e-09,-9.586425484875408402e-09,1.682806804436700382e-09
1.000000000000000000e+00,7.800000000000000000e+01,7.599018725768505894e-09,-7.803497254331140166e-09,1.421221600699445596e-09
1.000000000000000000e+00,7.900000000000000000e+01,6.143626602554179424e-09,-6.556804100571812593e-09,1.233172503831776217e-09
1.000000000000000000e+00,8.000000000000000000e+01,5.132673718104953459e-09,-5.265352167385983294e-09,1.024943280145381242e-09
1.000000000000000000e+00,8.100000000000000000e+01,4.093740042263416939e-09,-4.371131041320361060e-09,8.766755635031440022e-10
1.000000000000000000e+00,8.200000000000000000e+01,3.379322591098665455e-09,-3.462961760039078685e-09,7.173405370927739096e-10
1.000000000000000000e+00,8.300000000000000000e+01,2.659058968077869119e-09,-2.840758119132526924e-09,6.051119832940940945e-10
1.000000000000000000e+00,8.400000000000000000e+01,2.169098624510477266e-09,-2.220316824433442349e-09,4.876122128179642121e-10
1.000000000000000000e+00,8.500000000000000000e+01,1.683834542441940695e-09,-1.799970897172802770e-09,4.058266560388725947e-10
1.000000000000000000e+00,8.600000000000000000e+01,1.357445312432732076e-09,-1.387906430674764558e-09,3.221641582384247675e-10
1.000000000000000000e+00,8.700000000000000000e+01,1.039506225965091160e-09,-1.111936060725978594e-09,2.646748022404699297e-10
1.000000000000000000e+00,8.800000000000000000e+01,8.280957079517922170e-10,-8.456825828105623717e-10,2.070910768388675177e-10
1.000000000000000000e+00,8.900000000000000000e+01,6.253240722873561248e-10,-6.693751367713556435e-10,1.680845827921439025e-10
1.000000000000000000e+00,9.000000000000000000e+01,4.919265423675044120e-10,-5.017739090621053577e-10,1.297712817021302305e-10
1.000000000000000000e+00,9.100000000000000000e+01,3.657815088830956638e-10,-3.918475519214265061e-10,1.042716233901630057e-10
1.000000000000000000e+00,9.200000000000000000e+01,2.833832955871784007e-10,-2.887138629877760198e-10,7.969919749202727024e-11
1.000000000000000000e+00,9.300000000000000000e+01,2.063831138990411233e-10,-2.212609987181897066e-10,6.378038595875843056e-11
1.000000000000000000e+00,9.400000000000000000e+01,1.558225236696615395e-10,-1.585778588548636345e-10,4.876083255973995377e-11
1.000000000000000000e+00,9.500000000000000000e+01,1.088614487795612157e-10,-1.167918418999088792e-10,3.957241700041873252e-11
1.000000000000000000e+00,9.600000000000000000e+01,7.667768966882407448e-11,-7.796296746765677793e-11,3.117066688562435173e-11
1.000000000000000000e+00,9.700000000000000000e+01,4.652011500831250583e-11,-4.993506162292144296e-11,2.687140981494735359e-11
1.000000000000000000e+00,9.800000000000000000e+01,2.293487003892937054e-11,-2.330707512956849479e-11,2.326005750415625291e-11
1.000000000000000000e+00,9.900000000000000000e+01,0.000000000000000000e+00,-0.000000000000000000e+00,0.000000000000000000e+00
2.000000000000000000e+00,0.000000000000000000e+00,0.000000000000000000e+00,-0.000000000000000000e+00,0.000000000000000000e+00
2.000000000000000000e+00,1.000000000000000000e+00,3.533109095093983914e-11,-1.941891919034301427e-11,-3.588642844068457922e-11
2.000000000000000000e+00,2.000000000000000000e+00,7.177285688136915844e-11,-4.169380522808271040e-11,-4.169380522808269747e-11
2.000000000000000000e+00,3.000000000000000000e+00,1.187187014071052341e-10,-6.529441830588812626e-11,-4.869311248281885014e-11
2.000000000000000000e+00,4.000000000000000000e+00,1.691590818470068587e-10,-9.823025173338911268e-11,-6.233291198174979171e-11
2.000000000000000000e+00,5.000000000000000000e+00,2.433845253706048175e-10,-1.340139732098092156e-10,-7.739053482933216275e-11
2.000000000000000000e+00,6.000000000000000000e+00,3.239401515056711842e-10,-1.880203813781595442e-10,-1.020527165295621816e-10
2.000000000000000000e+00,7.000000000000000000e+00,4.474899584297291806e-10,-2.467505213815471755e-10,-1.284391875464715213e-10
2.000000000000000000e+00,8.000000000000000000e+00,5.808185265986142268e-10,-3.369511351273563973e-10,-1.693301576681421684e-10
2.000000000000000000e+00,9.000000000000000000e+00,7.861502737660135175e-10,-4.341604361599490162e-10,-2.121907861544760773e-10
2.000000000000000000e+00,1.000000000000000000e+01,1.005200098907566381e-09,-5.828907623283884318e-10,-2.768915544427174215e-10
2.000000000000000000e+00,1.100000000000000000e+01,1.339933382651448361e-09,-7.411677555322537735e-10,-3.434750665694648617e-10
2.000000000000000000e+00,1.200000000000000000e+01,1.692150232046496105e-09,-9.808782075587636919e-10,-4.422473553564774167e-10
2.000000000000000000e+00,1.300000000000000000e+01,2.224428093364403194e-09,-1.232379649980159380e-09,-5.420131934047594803e-10
2.000000000000000000e+00,1.400000000000000000e+01,2.776176618856015065e-09,-1.608800127934812521e-09,-6.878842521509901426e-10
2.000000000000000000e+00,1.500000000000000000e+01,3.600196597666383479e-09,-1.997759956873281856e-09,-8.323107028052724215e-10
2.000000000000000000e+00,1.600000000000000000e+01,4.440798024466559908e-09,-2.572958737791821861e-09,-1.040716769280142747e-09
2.000000000000000000e+00,1.700000000000000000e+01,5.681630136226668973e-09,-3.157737731430981427e-09,-1.242598970835853593e-09
2.000000000000000000e+00,1.800000000000000000e+01,6.925995966138267095e-09,-4.012434618028588586e-09,-1.530340803714116387e-09
2.000000000000000000e+00,1.900000000000000000e+01,8.742311743654901747e-09,-4.866405043102190114e-09,-1.802369756244401927e-09
2.000000000000000000e+00,2.000000000000000000e+01,1.053073547862707095e-08,-6.100618374858176441e-09,-2.185658789628829444e-09
2.000000000000000000e+00,2.100000000000000000e+01,1.311362932291256064e-08,-7.310958644697225647e-09,-2.538136044889988852e-09
2.000000000000000000e+00,2.200000000000000000e+01,1.560700756840704865e-08,-9.041853167062169635e-09,-3.029615205223525056e-09
2.000000000000000000e+00,2.300000000000000000e+01,1.917285973335961075e-08,-1.070522341968696209e-08,-3.467305570523142941e-09
2.000000000000000000e+00,2.400000000000000000e+01,2.254161870945333454e-08,-1.306098659604502052e-08,-4.072133787816059350e-09
2.000000000000000000e+00,2.500000000000000000e+01,2.731712730899172945e-08,-1.527517178130220889e-08,-4.590496924739347190e-09
2.000000000000000000e+00,2.600000000000000000e+01,3.172261255893202892e-08,-1.838399727505782960e-08,-5.301885984080123442e-09
2.000000000000000000e+00,2.700000000000000000e+01,3.792089927715197633e-08,-2.123503904659992829e-08,-5.883234431659407281e-09
2.000000000000000000e+00,2.800000000000000000e+01,4.348908142225084348e-08,-2.520893150237021055e-08,-6.678178397426842220e-09
2.000000000000000000e+00,2.900000000000000000e+01,5.127725607200566077e-08,-2.875407709339139305e-08,-7.288621939986172396e-09
2.000000000000000000e+00,3.000000000000000000e+01,5.806632530222318827e-08,-3.366823315715938534e-08,-8.124876233296953042e-09
2.000000000000000000e+00,3.100000000000000000e+01,6.752700853859956685e-08,-3.791616757033030264e-08,-8.713129639256090965e-09
2.000000000000000000e+00,3.200000000000000000e+01,7.549258458073537020e-08,-4.378603332307405577e-08,-9.528657084506708976e-09
2.000000000000000000e+00,3.300000000000000000e+01,8.658432270761298481e-08,-4.867715677848185928e-08,-1.002778875877652214e-08
2.000000000000000000e+00,3.400000000000000000e+01,9.554816209828841449e-08,-5.543665912742544210e-08,-1.074376574935557739e-08
2.000000000000000000e+00,3.500000000000000000e+01,1.080718542063241396e-07,-6.082731094711905402e-08,-1.107664504418527833e-08
2.000000000000000000e+00,3.600000000000000000e+01,1.177014521866589712e-07,-6.831282203785870717e-08,-1.160462646676079801e-08
2.000000000000000000e+00,3.700000000000000000e+01,1.312811071398457356e-07,-7.396792688187870537e-08,-1.169315178309467454e-08
2.000000000000000000e+00,3.800000000000000000e+01,1.410877557528483202e-07,-8.191280028574300733e-08,-1.194613839222982036e-08
2.000000000000000000e+00,3.900000000000000000e+01,1.551733839243053763e-07,-8.751102719973189155e-08,-1.172337581189624936e-08
2.000000000000000000e+00,4.000000000000000000e+01,1.645345073766408190e-07,-9.555467567758450574e-08,-1.162945617518969785e-08
2.000000000000000000e+00,4.100000000000000000e+01,1.784322962746847720e-07,-1.007086223334330215e-07,-1.105280050810904746e-08
2.000000000000000000e+00,4.200000000000000000e+01,1.866401083928589139e-07,-1.084219660619557472e-07,-1.056902571660806299e-08
2.000000000000000000e+00,4.300000000000000000e+01,1.995703477079008980e-07,-1.127131891453874438e-07,-9.631723443567454960e-09
2.000000000000000000e+00,4.400000000000000000e+01,2.059035552799938238e-07,-1.196391416685440061e-07,-8.755259750075760377e-09
2.000000000000000000e+00,4.500000000000000000e+01,2.170808672080524188e-07,-1.226645197689956653e-07,-7.493427834748706475e-09
2.000000000000000000e+00,4.600000000000000000e+01,2.208904109494912367e-07,-1.283686496431297501e-07,-6.267119029324857031e-09
2.000000000000000000e+00,4.700000000000000000e+01,2.296151052667021328e-07,-1.297913967645717565e-07,-4.759962249726546978e-09
2.000000000000000000e+00,4.800000000000000000e+01,2.304103354489443307e-07,-1.339149358711593250e-07,-3.270344152668787590e-09
2.000000000000000000e+00,4.900000000000000000e+01,2.361557935720397080e-07,-1.335115271112066011e-07,-1.632596648795846810e-09
2.000000000000000000e+00,5.000000000000000000e+01,2.336755287465360243e-07,-1.358174302283333507e-07,3.560185356428231113e-21
2.000000000000000000e+00,5.100000000000000000e+01,2.361557935720325876e-07,-1.335115271112028424e-07,1.632596648803681865e-09
2.000000000000000000e+00,5.200000000000000000e+01,2.304103354489286606e-07,-1.339149358711498224e-07,3.270344152681519554e-09
2.000000000000000000e+00,5.300000000000000000e+01,2.296151052666695485e-07,-1.297913967645546306e-07,4.759962249746650775e-09
2.000000000000000000e+00,5.400000000000000000e+01,2.208904109494353590e-07,-1.283686496430959746e-07,6.267119029362523527e-09
2.000000000000000000e+00,5.500000000000000000e+01,2.170808672079445015e-07,-1.226645197689387023e-07,7.493427834810857517e-09
2.000000000000000000e+00,5.600000000000000000e+01,2.059035552798136440e-07,-1.196391416684352153e-07,8.755259750192584749e-09
2.000000000000000000e+00,5.700000000000000000e+01,1.995703477075593320e-07,-1.127131891452067876e-07,9.631723443759374097e-09
2.000000000000000000e+00,5.800000000000000000e+01,1.866401083922948958e-07,-1.084219660616161664e-07,1.056902571696384329e-08
2.000000000000000000e+00,5.900000000000000000e+01,1.784322962736316454e-07,-1.007086223328749326e-07,1.105280050868782243e-08
2.000000000000000000e+00,6.000000000000000000e+01,1.645345073749192510e-07,-9.555467567655067556e-08,1.162945617624708613e-08
2.000000000000000000e+00,6.100000000000000000e+01,1.551733839211374731e-07,-8.751102719804971059e-08,1.172337581359885176e-08
2.000000000000000000e+00,6.200000000000000000e+01,1.410877557477215474e-07,-8.191280028267200997e-08,1.194613839529486202e-08
2.000000000000000000e+00,6.300000000000000000e+01,1.312811071305477491e-07,-7.396792687693163591e-08,1.169315178797944737e-08
2.000000000000000000e+00,6.400000000000000000e+01,1.177014521717626527e-07,-6.831282202895701293e-08,1.160462647542591859e-08
2.000000000000000000e+00,6.500000000000000000e+01,1.080718541796959119e-07,-6.082731093292368180e-08,1.107664505785219464e-08
2.000000000000000000e+00,6.600000000000000000e+01,9.554816205605826342e-08,-5.543665910224812890e-08,1.074376577324605565e-08
2.000000000000000000e+00,6.700000000000000000e+01,8.658432263320380060e-08,-4.867715673873833224e-08,1.002778879606537417e-08
2.000000000000000000e+00,6.800000000000000000e+01,7.549258446392751507e-08,-4.378603325358993141e-08,9.528657148740870196e-09
2.000000000000000000e+00,6.900000000000000000e+01,6.752700833572206021e-08,-3.791616746176297959e-08,8.713129738463623846e-09
2.000000000000000000e+00,7.000000000000000000e+01,5.806632498700026738e-08,-3.366823297005087932e-08,8.124876401709952993e-09
2.000000000000000000e+00,7.100000000000000000e+01,5.127725553230215422e-08,-2.875407680403240482e-08,7.288622197347624151e-09
2.000000000000000000e+00,7.200000000000000000e+01,4.348908059230501908e-08,-2.520893101075699959e-08,6.678178827980326606e-09
2.000000000000000000e+00,7.300000000000000000e+01,3.792089787634150101e-08,-2.123503829416491430e-08,5.883235082610163094e-09
2.000000000000000000e+00,7.400000000000000000e+01,3.172261042708469289e-08,-1.838399601478636275e-08,5.301887057307223855e-09
2.000000000000000000e+00,7.500000000000000000e+01,2.731712376172705330e-08,-1.527516987240303695e-08,4.590498529933800411e-09
2.000000000000000000e+00,7.600000000000000000e+01,2.254161336721709207e-08,-1.306098344393089228e-08,4.072136395988118248e-09
2.000000000000000000e+00,7.700000000000000000e+01,1.917285096975081680e-08,-1.070521869509218437e-08,3.467309429277405868e-09
2.000000000000000000e+00,7.800000000000000000e+01,1.560699450866228033e-08,-9.041845475377157097e-09,3.029621384303595810e-09
2.000000000000000000e+00,7.900000000000000000e+01,1.311360820114362519e-08,-7.310947237025697549e-09,2.538145086945156872e-09
2.000000000000000000e+00,8.000000000000000000e+01,1.053070433477196659e-08,-6.100600064166040627e-09,2.185673059251451533e-09
2.000000000000000000e+00,8.100000000000000000e+01,8.742262082640722120e-09,-4.866378173516895497e-09,1.802390407346904609e-09
2.000000000000000000e+00,8.200000000000000000e+01,6.925923520078157370e-09,-4.012392094339764249e-09,1.530372922187834135e-09
2.000000000000000000e+00,8.300000000000000000e+01,5.681516238265053849e-09,-3.157675996052971393e-09,1.242644935605636336e-09
2.000000000000000000e+00,8.400000000000000000e+01,4.440633648866884698e-09,-2.572862404580560707e-09,1.040787221959724155e-09
2.000000000000000000e+00,8.500000000000000000e+01,3.599941794345605540e-09,-1.997621603174132790e-09,8.324103937586777909e-10
2.000000000000000000e+00,8.600000000000000000e+01,2.775812861349529116e-09,-1.608587258872963437e-09,6.880348364468241755e-10
2.000000000000000000e+00,8.700000000000000000e+01,2.223872121451957189e-09,-1.232077236267838685e-09,5.422238478642021863e-10
2.000000000000000000e+00,8.800000000000000000e+01,1.691365165621124743e-09,-9.804194229075434853e-10,4.425609239546229507e-10
2.000000000000000000e+00,8.900000000000000000e+01,1.338750273542711287e-09,-7.405230929832882513e-10,3.439086737484570140e-10
2.000000000000000000e+00,9.000000000000000000e+01,1.003547818124210715e-09,-5.819264252356560775e-10,2.775275848499291374e-10
2.000000000000000000e+00,9.100000000000000000e+01,7.836951038428530122e-10,-4.328203121695067659e-10,2.130600460743293379e-10
2.000000000000000000e+00,9.200000000000000000e+01,5.774277259755520395e-10,-3.349744789503245360e-10,1.705865532032367995e-10
2.000000000000000000e+00,9.300000000000000000e+01,4.425219974363794131e-10,-2.440341143141621816e-10,1.301360041329123852e-10
2.000000000000000000e+00,9.400000000000000000e+01,3.171557177097272690e-10,-1.840697334371049686e-10,1.044691568182808273e-10
2.000000000000000000e+00,9.500000000000000000e+01,2.335836837998177585e-10,-1.286457391066103127e-10,8.061489138720685658e-11
2.000000000000000000e+00,9.600000000000000000e+01,1.559259349353135559e-10,-9.053210236437578197e-11,6.685678027698744274e-11
2.000000000000000000e+00,9.700000000000000000e+01,9.987012324584288591e-11,-5.495259997558919242e-11,5.465589233808828637e-11
2.000000000000000000e+00,9.800000000000000000e+01,4.661415025913698958e-11,-2.707125044145186349e-11,4.993506162292144296e-11
2.000000000000000000e+00,9.900000000000000000e+01,0.000000000000000000e+00,-0.000000000000000000e+00,0.000000000000000000e+00
3.000000000000000000e+00,0.000000000000000000e+00,0.000000000000000000e+00,-0.000000000000000000e+00,0.000000000000000000e+00
3.000000000000000000e+00,1.000000000000000000e+00,5.528408061548246754e-11,-2.393820463513281727e-11,-5.935935070355262997e-11
3.000000000000000000e+00,2.000000000000000000e+00,1.187187014071052599e-10,-4.869311248281885014e-11,-6.529441830588812626e-11
3.000000000000000000e+00,3.000000000000000000e+00,1.858729172272587201e-10,-8.047465114043922602e-11,-8.047465114043921309e-11
3.000000000000000000e+00,4.000000000000000000e+00,2.796680036879836861e-10,-1.148407120226117042e-10,-9.778405832694096629e-11
3.000000000000000000e+00,5.000000000000000000e+00,3.814410338811406526e-10,-1.651206635232181513e-10,-1.277740184499847230e-10
3.000000000000000000e+00,6.000000000000000000e+00,5.352160405879531320e-10,-2.201378317326729498e-10,-1.603737008683645147e-10
3.000000000000000000e+00,7.000000000000000000e+00,7.021884356178696820e-10,-3.039288817744291573e-10,-2.118738853283667161e-10
3.000000000000000000e+00,8.000000000000000000e+00,9.589638112446865643e-10,-3.951762445790754932e-10,-2.665256047420384774e-10
3.000000000000000000e+00,9.000000000000000000e+00,1.235239645101946637e-09,-5.346261674636448764e-10,-3.497816589996993336e-10
3.000000000000000000e+00,1.000000000000000000e+01,1.658527129244085231e-09,-6.848379966141027031e-10,-4.364836017744546525e-10
3.000000000000000000e+00,1.100000000000000000e+01,2.108206848650855942e-09,-9.125162587153668525e-10,-5.658573935150349471e-10
3.000000000000000000e+00,1.200000000000000000e+01,2.790241916274155126e-09,-1.154544578080887789e-09,-6.981577372158861024e-10
3.000000000000000000e+00,1.300000000000000000e+01,3.504522323082628147e-09,-1.517177226138678914e-09,-8.924922783733465432e-10
3.000000000000000000e+00,1.400000000000000000e+01,4.575226473020848212e-09,-1.897144709064983592e-09,-1.087474821949383395e-09
3.000000000000000000e+00,1.500000000000000000e+01,5.679471966981394937e-09,-2.459504093473976858e-09,-1.369935755708064679e-09
3.000000000000000000e+00,1.600000000000000000e+01,7.315097984436977570e-09,-3.039743541647103275e-09,-1.647557453944366145e-09
3.000000000000000000e+00,1.700000000000000000e+01,8.974586874870127226e-09,-3.888093063168639770e-09,-2.044564996831737947e-09
3.000000000000000000e+00,1.800000000000000000e+01,1.140422797810045347e-08,-4.749170714507199323e-09,-2.425993040933397336e-09
3.000000000000000000e+00,1.900000000000000000e+01,1.382657295673692190e-08,-5.993315624880814431e-09,-2.964849028892788738e-09
3.000000000000000000e+00,2.000000000000000000e+01,1.733392603588603094e-08,-7.234131422840036783e-09,-3.469490313875017861e-09
3.000000000000000000e+00,2.100000000000000000e+01,2.076555358448695762e-08,-9.006804105263285328e-09,-4.174402781949488882e-09
3.000000000000000000e+00,2.200000000000000000e+01,2.568273159978500871e-08,-1.074153706212688964e-08,-4.815483536579973836e-09
3.000000000000000000e+00,2.300000000000000000e+01,3.039652065764690529e-08,-1.319366034230668990e-08,-5.701938303517648974e-09
3.000000000000000000e+00,2.400000000000000000e+01,3.708660820682030665e-08,-1.554430006530467828e-08,-6.480804096329103818e-09
3.000000000000000000e+00,2.500000000000000000e+01,4.335812885030511293e-08,-1.883476651451229780e-08,-7.548645079890975928e-09
3.000000000000000000e+00,2.600000000000000000e+01,5.218389836660225851e-08,-2.191827596534541722e-08,-8.448402618956620423e-09
3.000000000000000000e+00,2.700000000000000000e+01,6.025493408821835378e-08,-2.619739486492671625e-08,-9.674525490895932616e-09
3.000000000000000000e+00,2.800000000000000000e+01,7.153294934839412374e-08,-3.010729144861268639e-08,-1.065417131632092926e-08
3.000000000000000000e+00,2.900000000000000000e+01,8.156327672086021230e-08,-3.549407385708177573e-08,-1.198630502588071472e-08
3.000000000000000000e+00,3.000000000000000000e+01,9.550555940015555317e-08,-4.027741995638193133e-08,-1.297694875335572984e-08
3.000000000000000000e+00,3.100000000000000000e+01,1.075171742275716720e-07,-4.683236331398997045e-08,-1.433042349077206997e-08
3.000000000000000000e+00,3.200000000000000000e+01,1.241664063816996931e-07,-5.246470544637462606e-08,-1.523542739535801893e-08
3.000000000000000000e+00,3.300000000000000000e+01,1.379880290182877098e-07,-6.016149552184199125e-08,-1.649489301005417399e-08
3.000000000000000000e+00,3.400000000000000000e+01,1.571561924018080411e-07,-6.652388714180119777e-08,-1.719551974259518060e-08
3.000000000000000000e+00,3.500000000000000000e+01,1.723790685034780710e-07,-7.522505918899990666e-08,-1.822309649521136188e-08
3.000000000000000000e+00,3.600000000000000000e+01,1.936023853922307649e-07,-8.208848707483346167e-08,-1.859045310681287811e-08
3.000000000000000000e+00,3.700000000000000000e+01,2.095599747171038273e-07,-9.153104241115141486e-08,-1.924068888270476029e-08
3.000000000000000000e+00,3.800000000000000000e+01,2.320837631576402854e-07,-9.855381998094108946e-08,-1.915339980118013319e-08
3.000000000000000000e+00,3.900000000000000000e+01,2.478667743194640937e-07,-1.083505346885473974e-07,-1.929378988937804615e-08
3.000000000000000000e+00,4.000000000000000000e+01,2.706713429363963777e-07,-1.150930896804543516e-07,-1.865915725785040378e-08
3.000000000000000000e+00,4.100000000000000000e+01,2.851850888351649012e-07,-1.247534250542355050e-07,-1.819319946427698624e-08
3.000000000000000000e+00,4.200000000000000000e+01,3.070577418649503502e-07,-1.307122503090362581e-07,-1.696805550278990116e-08
3.000000000000000000e+00,4.300000000000000000e+01,3.191211998407447036e-07,-1.396834202085831428e-07,-1.585639058944672579e-08
3.000000000000000000e+00,4.400000000000000000e+01,3.387705230438438018e-07,-1.443420902923511903e-07,-1.406295973113355656e-08
3.000000000000000000e+00,4.500000000000000000e+01,3.472471193030118167e-07,-1.520665144315111064e-07,-1.233764510922359858e-08
3.000000000000000000e+00,4.600000000000000000e+01,3.634458132622909990e-07,-1.549574099718231123e-07,-1.006998384920209413e-08
3.000000000000000000e+00,4.700000000000000000e+01,3.673870870014160049e-07,-1.609385095373055580e-07,-7.837749420880146280e-09
3.000000000000000000e+00,4.800000000000000000e+01,3.791213121040512915e-07,-1.617053916005824048e-07,-5.255902418204563993e-09
3.000000000000000000e+00,4.900000000000000000e+01,3.778988918378251329e-07,-1.655707082341590227e-07,-2.688347443655812292e-09
3.000000000000000000e+00,5.000000000000000000e+01,3.844980069913629161e-07,-1.640207085519131520e-07,5.346895479542770890e-21
3.000000000000000000e+00,5.100000000000000000e+01,3.778988918378144391e-07,-1.655707082341542052e-07,2.688347443669338350e-09
3.000000000000000000e+00,5.200000000000000000e+01,3.791213121040242394e-07,-1.617053916005718169e-07,5.255902418223595764e-09
3.000000000000000000e+00,5.300000000000000000e+01,3.673870870013672476e-07,-1.609385095372835351e-07,7.837749420914715812e-09
3.000000000000000000e+00,5.400000000000000000e+01,3.634458132621948078e-07,-1.549574099717852605e-07,1.006998384925881886e-08
3.000000000000000000e+00,5.500000000000000000e+01,3.472471193028496099e-07,-1.520665144314381028e-07,1.233764510933040414e-08
3.000000000000000000e+00,5.600000000000000000e+01,3.387705230435339995e-07,-1.443420902922291117e-07,1.406295973130968648e-08
3.000000000000000000e+00,5.700000000000000000e+01,3.191211998402302369e-07,-1.396834202083521675e-07,1.585639058977545399e-08
3.000000000000000000e+00,5.800000000000000000e+01,3.070577418639830915e-07,-1.307122503086545374e-07,1.696805550332742298e-08
3.000000000000000000e+00,5.900000000000000000e+01,2.851850888335753910e-07,-1.247534250535238915e-07,1.819319946526597661e-08
3.000000000000000000e+00,6.000000000000000000e+01,2.706713429334511383e-07,-1.150930896792899327e-07,1.865915725945142840e-08
3.000000000000000000e+00,6.100000000000000000e+01,2.478667743146725342e-07,-1.083505346864081892e-07,1.929378989228035160e-08
3.000000000000000000e+00,6.200000000000000000e+01,2.320837631488904351e-07,-9.855381997747571885e-08,1.915339980583070142e-08
3.000000000000000000e+00,6.300000000000000000e+01,2.095599747030111313e-07,-9.153104240487614480e-08,1.924068889101223445e-08
3.000000000000000000e+00,6.400000000000000000e+01,1.936023853668659662e-07,-8.208848706476981028e-08,1.859045311998737711e-08
3.000000000000000000e+00,6.500000000000000000e+01,1.723790684630363771e-07,-7.522505917103690542e-08,1.822309651840232988e-08
3.000000000000000000e+00,6.600000000000000000e+01,1.571561923300613064e-07,-6.652388711328421894e-08,1.719551977899188194e-08
3.000000000000000000e+00,6.700000000000000000e+01,1.379880289050526132e-07,-6.016149547166731964e-08,1.649489307319044816e-08
3.000000000000000000e+00,6.800000000000000000e+01,1.241664061836804101e-07,-5.246470536752761125e-08,1.523542749341221388e-08
3.000000000000000000e+00,6.900000000000000000e+01,1.075171739182281855e-07,-4.683236317723498572e-08,1.433042365839255811e-08
3.000000000000000000e+00,7.000000000000000000e+01,9.550555886689529391e-08,-4.027741974366888986e-08,1.297694901094322690e-08
3.000000000000000000e+00,7.100000000000000000e+01,8.156327589634173166e-08,-3.549407349337904984e-08,1.198630545983013286e-08
3.000000000000000000e+00,7.200000000000000000e+01,7.153294794723502819e-08,-3.010729088869916563e-08,1.065417197611995668e-08
3.000000000000000000e+00,7.300000000000000000e+01,6.025493194410181830e-08,-2.619739392111533801e-08,9.674526586333878033e-09
3.000000000000000000e+00,7.400000000000000000e+01,5.218389477456727212e-08,-2.191827452735745816e-08,8.448404266733286021e-09
3.000000000000000000e+00,7.500000000000000000e+01,4.335812341063524626e-08,-1.883476412479037349e-08,7.548647776031790456e-09
3.000000000000000000e+00,7.600000000000000000e+01,3.708659922250369121e-08,-1.554429646213817019e-08,6.480808108248903452e-09
3.000000000000000000e+00,7.700000000000000000e+01,3.039650719413743935e-08,-1.319365443867390763e-08,5.701944772990436388e-09
3.000000000000000000e+00,7.800000000000000000e+01,2.568270967652281843e-08,-1.074152825380075480e-08,4.815493058765932003e-09
3.000000000000000000e+00,7.900000000000000000e+01,2.076552107660557535e-08,-9.006789875911957979e-09,4.174417915042892274e-09
3.000000000000000000e+00,8.000000000000000000e+01,1.733387384643703389e-08,-7.234110415784995891e-09,3.469512343654183708e-09
3.000000000000000000e+00,8.100000000000000000e+01,1.382649638929720793e-08,-5.993282164870252415e-09,2.964883533329420174e-09
3.000000000000000000e+00,8.200000000000000000e+01,1.140410677977819354e-08,-4.749121840303228037e-09,2.426042714556698014e-09
3.000000000000000000e+00,8.300000000000000000e+01,8.974410960183811905e-09,-3.888016305685281875e-09,2.044641673053297637e-09
3.000000000000000000e+00,8.400000000000000000e+01,7.314823433671598265e-09,-3.039632620629073611e-09,1.647666605696802919e-09
3.000000000000000000e+00,8.500000000000000000e+01,5.679077748790206068e-09,-2.459332324696015615e-09,1.370101801746469657e-09
3.000000000000000000e+00,8.600000000000000000e+01,4.574619830178658951e-09,-1.896899158475294699e-09,1.087708525144718666e-09
3.000000000000000000e+00,8.700000000000000000e+01,3.503660698500768736e-09,-1.516802280789445044e-09,8.928426382058898819e-10
3.000000000000000000e+00,8.800000000000000000e+01,2.788934553766879188e-09,-1.154014389405488484e-09,6.986452201234181061e-10
3.000000000000000000e+00,8.900000000000000000e+01,2.106370258253932524e-09,-9.117179716631262224e-10,5.665775804640313620e-10
3.000000000000000000e+00,9.000000000000000000e+01,1.655779392838816464e-09,-6.837215267000000496e-10,4.374740625159116384e-10
3.000000000000000000e+00,9.100000000000000000e+01,1.231422133222109247e-09,-5.329685671599235606e-10,3.512235696754944955e-10
3.000000000000000000e+00,9.200000000000000000e+01,9.533322534878274726e-10,-3.928835284423783749e-10,2.684853953473718932e-10
3.000000000000000000e+00,9.300000000000000000e+01,6.944513425273654607e-10,-3.005723802045700176e-10,2.146851314719780109e-10
3.000000000000000000e+00,9.400000000000000000e+01,5.239619905438714509e-10,-2.155469736852822493e-10,1.641492077672918163e-10
3.000000000000000000e+00,9.500000000000000000e+01,3.661529269927818281e-10,-1.584934567096442882e-10,1.331100480731479127e-10
3.000000000000000000e+00,9.600000000000000000e+01,2.577418943975756255e-10,-1.058783067733221380e-10,1.048638060166454720e-10
3.000000000000000000e+00,9.700000000000000000e+01,1.564253149594908842e-10,-6.771749507056934495e-11,9.033226173787125914e-11
3.000000000000000000e+00,9.800000000000000000e+01,7.707737092183309429e-11,-3.163694511462216621e-11,7.821265747974544210e-11
3.000000000000000000e+00,9.900000000000000000e+01,0.000000000000000000e+00,-0.000000000000000000e+00,0.000000000000000000e+00
4.000000000000000000e+00,0.000000000000000000e+00,0.000000000000000000e+00,-0.000000000000000000e+00,0.000000000000000000e+00
4.000000000000000000e+00,1.000000000000000000e+00,8.320750022120547368e-11,-2.906450342301987053e-11,-8.457954092350342936e-11
4.000000000000000000e+00,2.000000000000000000e+00,1.691590818470068587e-10,-6.233291198174977879e-11,-9.823025173338911268e-11
4.000000000000000000e+00,3.000000000000000000e+00,2.796680036879836861e-10,-9.778405832694096629e-11,-1.148407120226117042e-10
4.000000000000000000e+00,4.000000000000000000e+00,3.988405058922302672e-10,-1.469789243645287170e-10,-1.469789243645287170e-10
4.000000000000000000e+00,5.000000000000000000e+00,5.736258524170411202e-10,-2.009082140492353383e-10,-1.826876545393934083e-10
4.000000000000000000e+00,6.000000000000000000e+00,7.642158149710170838e-10,-2.816744420062257622e-10,-2.408609347807732134e-10
4.000000000000000000e+00,7.000000000000000000e+00,1.055347721978587547e-09,-3.704239697872351907e-10,-3.034776003928740647e-10
4.000000000000000000e+00,8.000000000000000000e+00,1.371171015756765213e-09,-5.055393636698172240e-10,-4.000274433573578617e-10
4.000000000000000000e+00,9.000000000000000000e+00,1.855402608693303270e-09,-6.527967481827241655e-10,-5.018525381895032872e-10
4.000000000000000000e+00,1.000000000000000000e+01,2.374876092135771788e-09,-8.759926377703744311e-10,-6.547816456944393976e-10
4.000000000000000000e+00,1.100000000000000000e+01,3.164965900082182066e-09,-1.116351682584396799e-09,-8.131816480362498444e-10
4.000000000000000000e+00,1.200000000000000000e+01,4.001239388208271476e-09,-1.476784565958541556e-09,-1.046908322779789478e-09
4.000000000000000000e+00,1.300000000000000000e+01,5.258782545641761022e-09,-1.859708293431027943e-09,-1.284613324388855387e-09
4.000000000000000000e+00,1.400000000000000000e+01,6.570466036985982249e-09,-2.426881497210282369e-09,-1.630211119486288087e-09
4.000000000000000000e+00,1.500000000000000000e+01,8.519204784614337196e-09,-3.020733715472537550e-09,-1.974909535387392104e-09
4.000000000000000000e+00,1.600000000000000000e+01,1.052028510776076646e-08,-3.889325527701895381e-09,-2.469305738974806072e-09
4.000000000000000000e+00,1.700000000000000000e+01,1.345781626256394934e-08,-4.784784209427199793e-09,-2.952026143695949642e-09
4.000000000000000000e+00,1.800000000000000000e+01,1.642433739515266574e-08,-6.078413524311782204e-09,-3.635563365426290634e-09
4.000000000000000000e+00,1.900000000000000000e+01,2.072894299341653061e-08,-7.390179367257465410e-09,-4.287330464577239387e-09
4.000000000000000000e+00,2.000000000000000000e+01,2.499899832430714452e-08,-9.262691402894138724e-09,-5.199147270011301168e-09
4.000000000000000000e+00,2.100000000000000000e+01,3.112723753343913295e-08,-1.112803832586834427e-08,-6.045541684176841709e-09
4.000000000000000000e+00,2.200000000000000000e+01,3.709008169266082793e-08,-1.376053468207542346e-08,-7.216471442266928798e-09
4.000000000000000000e+00,2.300000000000000000e+01,4.556018041797299054e-08,-1.633304591224577483e-08,-8.270068573700929931e-09
4.000000000000000000e+00,2.400000000000000000e+01,5.363021884006268780e-08,-1.992477931692464691e-08,-9.713239960021668906e-09
4.000000000000000000e+00,2.500000000000000000e+01,6.498666033801632835e-08,-2.336174079504305511e-08,-1.096447282478008778e-08
4.000000000000000000e+00,2.600000000000000000e+01,7.555916448962286336e-08,-2.811333517389996284e-08,-1.266451433449454024e-08
4.000000000000000000e+00,2.700000000000000000e+01,9.031568900700540883e-08,-3.255588512372977882e-08,-1.407224991492667314e-08
4.000000000000000000e+00,2.800000000000000000e+01,1.037036643194762096e-07,-3.864428819629025479e-08,-1.597485738958189840e-08
4.000000000000000000e+00,2.900000000000000000e+01,1.222654037861692056e-07,-4.419065280571614588e-08,-1.745875044775541734e-08
4.000000000000000000e+00,3.000000000000000000e+01,1.386211652149870443e-07,-5.173683797574657141e-08,-1.946316569020515107e-08
4.000000000000000000e+00,3.100000000000000000e+01,1.611917351665795078e-07,-5.841078102193481060e-08,-2.090041512924878900e-08
4.000000000000000000e+00,3.200000000000000000e+01,1.804219954734846223e-07,-6.744335527587785782e-08,-2.285778929235872315e-08
4.000000000000000000e+00,3.300000000000000000e+01,2.069073137512969541e-07,-7.516208420776719817e-08,-2.408697045420309385e-08
4.000000000000000000e+00,3.400000000000000000e+01,2.285959363818908100e-07,-8.558224959295356448e-08,-2.580732941651349943e-08
4.000000000000000000e+00,3.500000000000000000e+01,2.585219725843239529e-07,-9.412996400613016100e-08,-2.664124497721754885e-08
4.000000000000000000e+00,3.600000000000000000e+01,2.818784263363259077e-07,-1.056851059679068320e-07,-2.791060968891230621e-08
4.000000000000000000e+00,3.700000000000000000e+01,3.143431919621485653e-07,-1.146994790934789968e-07,-2.815848468920229571e-08
4.000000000000000000e+00,3.800000000000000000e+01,3.381953957147304991e-07,-1.269732750155703712e-07,-2.876563066962580287e-08
4.000000000000000000e+00,3.900000000000000000e+01,3.718744533014001711e-07,-1.359517415924546395e-07,-2.826264551140951148e-08
4.000000000000000000e+00,4.000000000000000000e+01,3.947206867375495221e-07,-1.483774510964701712e-07,-2.803234654087781872e-08
4.000000000000000000e+00,4.100000000000000000e+01,4.279391463831558085e-07,-1.567077872172458963e-07,-2.667196113669095402e-08
4.000000000000000000e+00,4.200000000000000000e+01,4.480646090109314302e-07,-1.686080304823763429e-07,-2.549902087095567428e-08
4.000000000000000000e+00,4.300000000000000000e+01,4.789371881250671571e-07,-1.756234043079489594e-07,-2.326156342688238712e-08
4.000000000000000000e+00,4.400000000000000000e+01,4.945877358646962044e-07,-1.862746022016747108e-07,-2.113835397300373725e-08
4.000000000000000000e+00,4.500000000000000000e+01,5.212138960710746316e-07,-1.913277664972455591e-07,-1.810874751422062850e-08
4.000000000000000000e+00,4.600000000000000000e+01,5.308052308931374614e-07,-2.000415509604556296e-07,-1.513911413511930857e-08
4.000000000000000000e+00,4.700000000000000000e+01,5.514921243413132487e-07,-2.025874713949056337e-07,-1.150794387848585270e-08
4.000000000000000000e+00,4.800000000000000000e+01,5.538211186501091668e-07,-2.087963361230581512e-07,-7.902542849522239057e-09
4.000000000000000000e+00,4.900000000000000000e+01,5.672972100403577268e-07,-2.084689246205299855e-07,-3.947913600126580738e-09
4.000000000000000000e+00,5.000000000000000000e+01,5.617169458503623283e-07,-2.118008005151058229e-07,8.364450354136215848e-21
4.000000000000000000e+00,5.100000000000000000e+01,5.672972100403409979e-07,-2.084689246205243739e-07,3.947913600145003704e-09
4.000000000000000000e+00,5.200000000000000000e+01,5.538211186500723209e-07,-2.087963361230440958e-07,7.902542849552202847e-09
4.000000000000000000e+00,5.300000000000000000e+01,5.514921243412365923e-07,-2.025874713948798786e-07,1.150794387853323360e-08
4.000000000000000000e+00,5.400000000000000000e+01,5.308052308930058537e-07,-2.000415509604051517e-07,1.513911413520792939e-08
4.000000000000000000e+00,5.500000000000000000e+01,5.212138960708207335e-07,-1.913277664971605382e-07,1.810874751436700638e-08
4.000000000000000000e+00,5.600000000000000000e+01,4.945877358642718409e-07,-1.862746022015125570e-07,2.113835397327854650e-08
4.000000000000000000e+00,5.700000000000000000e+01,4.789371881242636405e-07,-1.756234043076793382e-07,2.326156342733393509e-08
4.000000000000000000e+00,5.800000000000000000e+01,4.480646090096039707e-07,-1.686080304818704789e-07,2.549902087179211932e-08
4.000000000000000000e+00,5.900000000000000000e+01,4.279391463806794018e-07,-1.567077872164135011e-07,2.667196113805242713e-08
4.000000000000000000e+00,6.000000000000000000e+01,3.947206867334991164e-07,-1.483774510949312182e-07,2.803234654336277516e-08
4.000000000000000000e+00,6.100000000000000000e+01,3.718744532939538515e-07,-1.359517415899476337e-07,2.826264551541306565e-08
4.000000000000000000e+00,6.200000000000000000e+01,3.381953957026729851e-07,-1.269732750110020578e-07,2.876563067682690641e-08
4.000000000000000000e+00,6.300000000000000000e+01,3.143431919403000387e-07,-1.146994790861111734e-07,2.815848470068536255e-08
4.000000000000000000e+00,6.400000000000000000e+01,2.818784263013022600e-07,-1.056851059546729348e-07,2.791060970926515797e-08
4.000000000000000000e+00,6.500000000000000000e+01,2.585219725217697227e-07,-9.412996398500068590e-08,2.664124500933777937e-08
4.000000000000000000e+00,6.600000000000000000e+01,2.285959362826267013e-07,-8.558224955554272647e-08,2.580732947261564143e-08
4.000000000000000000e+00,6.700000000000000000e+01,2.069073135765384399e-07,-7.516208414863907067e-08,2.408697054182198186e-08
4.000000000000000000e+00,6.800000000000000000e+01,1.804219951989827376e-07,-6.744335517267738846e-08,2.285778944317320411e-08
4.000000000000000000e+00,6.900000000000000000e+01,1.611917346901920317e-07,-5.841078086048043777e-08,2.090041536232234523e-08
4.000000000000000000e+00,7.000000000000000000e+01,1.386211644743380471e-07,-5.173683769794473894e-08,1.946316608556589219e-08
4.000000000000000000e+00,7.100000000000000000e+01,1.222654025190602473e-07,-4.419065237553822796e-08,1.745875105231734839e-08
4.000000000000000000e+00,7.200000000000000000e+01,1.037036623697033503e-07,-3.864428746658252775e-08,1.597485840024403513e-08
4.000000000000000000e+00,7.300000000000000000e+01,9.031568571857217703e-08,-3.255588400537372251e-08,1.407225144395187056e-08
4.000000000000000000e+00,7.400000000000000000e+01,7.555915948179960922e-08,-2.811333330359117523e-08,1.266451685363218672e-08
4.000000000000000000e+00,7.500000000000000000e+01,6.498665201130780358e-08,-2.336173795820364912e-08,1.096447659515308672e-08
4.000000000000000000e+00,7.600000000000000000e+01,5.363020629149343577e-08,-1.992477463939778443e-08,9.713246082104585754e-09
4.000000000000000000e+00,7.700000000000000000e+01,4.556015984709863207e-08,-1.633303889124212160e-08,8.270077637614822921e-09
4.000000000000000000e+00,7.800000000000000000e+01,3.709005101626378992e-08,-1.376052326791784976e-08,7.216485947065545465e-09
4.000000000000000000e+00,7.900000000000000000e+01,3.112718795296754114e-08,-1.112802137241059901e-08,6.045562924960915777e-09
4.000000000000000000e+00,8.000000000000000000e+01,2.499892516634195837e-08,-9.262664227263200117e-09,5.199180770293157097e-09
4.000000000000000000e+00,8.100000000000000000e+01,2.072882641238122695e-08,-7.390139428520106495e-09,4.287378982828672463e-09
4.000000000000000000e+00,8.200000000000000000e+01,1.642416720068461344e-08,-6.078350398858780194e-09,3.635638781372804262e-09
4.000000000000000000e+00,8.300000000000000000e+01,1.345754884963561843e-08,-4.784692421247288661e-09,2.952134155279790762e-09
4.000000000000000000e+00,8.400000000000000000e+01,1.051989889012503192e-08,-3.889182474918730299e-09,2.469471202948990829e-09
4.000000000000000000e+00,8.500000000000000000e+01,8.518606443737636769e-09,-3.020527931412482233e-09,1.975143855912456910e-09
4.000000000000000000e+00,8.600000000000000000e+01,6.569611178300118101e-09,-2.426565248041494351e-09,1.630564880353394746e-09
4.000000000000000000e+00,8.700000000000000000e+01,5.257476683030847276e-09,-1.859258263199749420e-09,1.285108616934008299e-09
4.000000000000000000e+00,8.800000000000000000e+01,3.999393944432101504e-09,-1.476102582057670106e-09,1.047645233080941772e-09
4.000000000000000000e+00,8.900000000000000000e+01,3.162186216868963732e-09,-1.115391740958745662e-09,8.142015364539453447e-10
4.000000000000000000e+00,9.000000000000000000e+01,2.370990871524210815e-09,-8.745581516916487247e-10,6.562769893531317993e-10
4.000000000000000000e+00,9.100000000000000000e+01,1.849632238162700133e-09,-6.507997186783550745e-10,5.038980443319510127e-10
4.000000000000000000e+00,9.200000000000000000e+01,1.363194782860308789e-09,-5.025965911742555785e-10,4.029827401585903684e-10
4.000000000000000000e+00,9.300000000000000000e+01,1.043666757845519397e-09,-3.663724454376410284e-10,3.074725588900085108e-10
4.000000000000000000e+00,9.400000000000000000e+01,7.482496650802917676e-10,-2.757872271968347809e-10,2.465480803132065309e-10
4.000000000000000000e+00,9.500000000000000000e+01,5.505705972191063348e-10,-1.928933129037724107e-10,1.902835582991669678e-10
4.000000000000000000e+00,9.600000000000000000e+01,3.676825484819578319e-10,-1.354946433616180965e-10,1.576327419160623859e-10
4.000000000000000000e+00,9.700000000000000000e+01,2.353051133869815629e-10,-8.232554403268129985e-11,1.288972539967882582e-10
4.000000000000000000e+00,9.800000000000000000e+01,1.098880404883813155e-10,-4.049160997930267381e-11,1.176525566934907814e-10
4.000000000000000000e+00,9.900000000000000000e+01,0.000000000000000000e+00,-0.000000000000000000e+00,0.000000000000000000e+00
5.000000000000000000e+00,0.000000000000000000e+00,0.000000000000000000e+00,-0.000000000000000000e+00,0.000000000000000000e+00
5.000000000000000000e+00,1.000000000000000000e+00,1.134130874615222086e-10,-3.798388880521429792e-11,-1.216922626853024088e-10
5.000000000000000000e+00,2.000000000000000000e+00,2.433845253706048175e-10,-7.739053482933218860e-11,-1.340139732098092156e-10
5.000000000000000000e+00,3.000000000000000000e+00,3.814410338811406526e-10,-1.277740184499848264e-10,-1.651206635232181513e-10
5.000000000000000000e+00,4.000000000000000000e+00,5.736258524170411202e-10,-1.826876545393935117e-10,-2.009082140492353383e-10
5.000000000000000000e+00,5.000000000000000000e+00,7.832574619796113293e-10,-2.624695360916817681e-10,-2.624695360916817681e-10
5.000000000000000000e+00,6.000000000000000000e+00,1.098564924600404656e-09,-3.506573718666983085e-10,-3.298894566063643670e-10
5.000000000000000000e+00,7.000000000000000000e+00,1.443036375192340063e-09,-4.838299796040184943e-10,-4.357388069919581779e-10
5.000000000000000000e+00,8.000000000000000000e+00,1.970042538584321012e-09,-6.304862482469747448e-10,-5.488983831375274522e-10
5.000000000000000000e+00,9.000000000000000000e+00,2.540833141467394968e-09,-8.525412176028851693e-10,-7.202349331002565406e-10
5.000000000000000000e+00,1.000000000000000000e+01,3.410512404784834094e-09,-1.094599069360963187e-09,-9.000385361761272859e-10
5.000000000000000000e+00,1.100000000000000000e+01,4.340910213819649539e-09,-1.457894012400714602e-09,-1.166649321703202072e-09
5.000000000000000000e+00,1.200000000000000000e+01,5.743811048191238238e-09,-1.848966823075091465e-09,-1.441514348062517247e-09
5.000000000000000000e+00,1.300000000000000000e+01,7.223938909944684033e-09,-2.428878345003469983e-09,-1.842589209625087356e-09
5.000000000000000000e+00,1.400000000000000000e+01,9.428989467441412950e-09,-3.044601789653987376e-09,-2.248500243990893002e-09
5.000000000000000000e+00,1.500000000000000000e+01,1.172093939792647004e-08,-3.946014719720176006e-09,-2.832379786199678104e-09
5.000000000000000000e+00,1.600000000000000000e+01,1.509374903984076916e-08,-4.889154716286156075e-09,-3.411607947899028387e-09
5.000000000000000000e+00,1.700000000000000000e+01,1.854415529372452681e-08,-6.252334116096897623e-09,-4.233652993441624357e-09
5.000000000000000000e+00,1.800000000000000000e+01,2.356105502672401787e-08,-7.656523541081723936e-09,-5.031388198763662954e-09
5.000000000000000000e+00,1.900000000000000000e+01,2.860693169125185272e-08,-9.660829482918341368e-09,-6.149126907475145258e-09
5.000000000000000000e+00,2.000000000000000000e+01,3.585930884167430839e-08,-1.169126843000149651e-08,-7.207349272485896726e-09
5.000000000000000000e+00,2.100000000000000000e+01,4.302163023622364617e-08,-1.455461175007062612e-08,-8.672246061130773617e-09
5.000000000000000000e+00,2.200000000000000000e+01,5.320380096393585562e-08,-1.740364690147076664e-08,-1.002049112295740440e-08
5.000000000000000000e+00,2.300000000000000000e+01,6.306261248213845496e-08,-2.137522774083784326e-08,-1.186618293836687243e-08
5.000000000000000000e+00,2.400000000000000000e+01,7.693616684066960048e-08,-2.525061442588590764e-08,-1.350949897912638409e-08
5.000000000000000000e+00,2.500000000000000000e+01,9.008161044039122314e-08,-3.059457309687720615e-08,-1.573720093686629186e-08
5.000000000000000000e+00,2.600000000000000000e+01,1.084105687144021842e-07,-3.569865138429643164e-08,-1.764254694764334414e-08
5.000000000000000000e+00,2.700000000000000000e+01,1.253667043356779114e-07,-4.266704105719487141e-08,-2.020547851328622457e-08
5.000000000000000000e+00,2.800000000000000000e+01,1.488215257409746333e-07,-4.916622720244607693e-08,-2.228893899830729632e-08
5.000000000000000000e+00,2.900000000000000000e+01,1.699445823322925041e-07,-5.796136137086649176e-08,-2.507885480533703133e-08
5.000000000000000000e+00,3.000000000000000000e+01,1.989792353516486960e-07,-6.594734396589185461e-08,-2.719707696957439456e-08
5.000000000000000000e+00,3.100000000000000000e+01,2.243387362714412932e-07,-7.667606114250610758e-08,-3.003694079090335639e-08
5.000000000000000000e+00,3.200000000000000000e+01,2.590531169334554088e-07,-8.612273890604755796e-08,-3.198673058119040651e-08
5.000000000000000000e+00,3.300000000000000000e+01,2.883121974338221062e-07,-9.874815093574708200e-08,-3.463378732712988065e-08
5.000000000000000000e+00,3.400000000000000000e+01,3.283206915877151700e-07,-1.094711851077049351e-07,-3.616339954095814343e-08
5.000000000000000000e+00,3.500000000000000000e+01,3.606389965157383930e-07,-1.237703802226902339e-07,-3.832595287016462936e-08
5.000000000000000000e+00,3.600000000000000000e+01,4.049725973280444288e-07,-1.353984802520213921e-07,-3.915996819416171396e-08
5.000000000000000000e+00,3.700000000000000000e+01,4.389589329040618210e-07,-1.509365074732638918e-07,-4.052885793036829954e-08
5.000000000000000000e+00,3.800000000000000000e+01,4.860303131887810279e-07,-1.629042740187486264e-07,-4.040566230015577583e-08
5.000000000000000000e+00,3.900000000000000000e+01,5.197702575043733726e-07,-1.790345499710821862e-07,-4.069796597027784611e-08
5.000000000000000000e+00,4.000000000000000000e+01,5.674262451293367201e-07,-1.906050222914090914e-07,-3.941520288264166056e-08
5.000000000000000000e+00,4.100000000000000000e+01,5.986006632696566938e-07,-2.065033679945216203e-07,-3.842377885018315794e-08
5.000000000000000000e+00,4.200000000000000000e+01,6.442738028297030360e-07,-2.168240000109209114e-07,-3.588367259349296429e-08
5.000000000000000000e+00,4.300000000000000000e+01,6.703680084566426223e-07,-2.315577970389735140e-07,-3.352296230874509377e-08
5.000000000000000000e+00,4.400000000000000000e+01,7.113197274471932235e-07,-2.397468652737742001e-07,-2.976732192043015626e-08
5.000000000000000000e+00,4.500000000000000000e+01,7.299026522975029349e-07,-2.523732152449688023e-07,-2.610459386800451733e-08
5.000000000000000000e+00,4.600000000000000000e+01,7.635289151832022582e-07,-2.576260236122706564e-07,-2.132968874686216873e-08
5.000000000000000000e+00,4.700000000000000000e+01,7.725620297912272723e-07,-2.673051015059370074e-07,-1.659253458348266790e-08
5.000000000000000000e+00,4.800000000000000000e+01,7.967139843501675940e-07,-2.690028753388235418e-07,-1.113735564382891577e-08
5.000000000000000000e+00,4.900000000000000000e+01,7.948367410788851039e-07,-2.751071617211480800e-07,-5.692811835703483937e-09
5.000000000000000000e+00,5.000000000000000000e+01,8.080996080215745618e-07,-2.729083960566129077e-07,1.095848875510251064e-20
5.000000000000000000e+00,5.100000000000000000e+01,7.948367410788631869e-07,-2.751071617211404567e-07,5.692811835731065447e-09
5.000000000000000000e+00,5.200000000000000000e+01,7.967139843501124309e-07,-2.690028753388067070e-07,1.113735564386809104e-08
5.000000000000000000e+00,5.300000000000000000e+01,7.725620297911270048e-07,-2.673051015059020673e-07,1.659253458355365985e-08
5.000000000000000000e+00,5.400000000000000000e+01,7.635289151830051112e-07,-2.576260236122106759e-07,2.132968874697815930e-08
5.000000000000000000e+00,5.500000000000000000e+01,7.299026522971706862e-07,-2.523732152448532882e-07,2.610459386822299890e-08
5.000000000000000000e+00,5.600000000000000000e+01,7.113197274465591135e-07,-2.397468652735808648e-07,2.976732192079088642e-08
5.000000000000000000e+00,5.700000000000000000e+01,6.703680084555889134e-07,-2.315577970386084428e-07,3.352296230941753205e-08
5.000000000000000000e+00,5.800000000000000000e+01,6.442738028277240494e-07,-2.168240000103166858e-07,3.588367259459326009e-08
5.000000000000000000e+00,5.900000000000000000e+01,5.986006632664023932e-07,-2.065033679933976605e-07,3.842377885220523735e-08
5.000000000000000000e+00,6.000000000000000000e+01,5.674262451233135747e-07,-1.906050222895676947e-07,3.941520288591729579e-08
5.000000000000000000e+00,6.100000000000000000e+01,5.197702574945678016e-07,-1.790345499677054100e-07,4.069796597620951196e-08
5.000000000000000000e+00,6.200000000000000000e+01,4.860303131708945508e-07,-1.629042740132719760e-07,4.040566230966716174e-08
5.000000000000000000e+00,6.300000000000000000e+01,4.389589328752334781e-07,-1.509365074633648030e-07,4.052885794734135750e-08
5.000000000000000000e+00,6.400000000000000000e+01,4.049725972762118358e-07,-1.353984802361265541e-07,3.915996822109786461e-08
5.000000000000000000e+00,6.500000000000000000e+01,3.606389964330377489e-07,-1.237703801943701637e-07,3.832595291753253819e-08
5.000000000000000000e+00,6.600000000000000000e+01,3.283206914411467594e-07,-1.094711850626885750e-07,3.616339961535349717e-08
5.000000000000000000e+00,6.700000000000000000e+01,2.883121972023307546e-07,-9.874815085668110918e-08,3.463378745605578616e-08
5.000000000000000000e+00,6.800000000000000000e+01,2.590531165290351870e-07,-8.612273878163689392e-08,3.198673078157084679e-08
5.000000000000000000e+00,6.900000000000000000e+01,2.243387356391890610e-07,-7.667606092709067367e-08,3.003694113312520763e-08
5.000000000000000000e+00,7.000000000000000000e+01,1.989792342627847718e-07,-6.594734363037771022e-08,2.719707749588543671e-08
5.000000000000000000e+00,7.100000000000000000e+01,1.699445806474181876e-07,-5.796136079813785882e-08,2.507885569119234406e-08
5.000000000000000000e+00,7.200000000000000000e+01,1.488215228804000837e-07,-4.916622631952292756e-08,2.228894034628446213e-08
5.000000000000000000e+00,7.300000000000000000e+01,1.253666999548492633e-07,-4.266703957126845074e-08,2.020548074932523055e-08
5.000000000000000000e+00,7.400000000000000000e+01,1.084105613817496226e-07,-3.569864911712486203e-08,1.764255031390335941e-08
5.000000000000000000e+00,7.500000000000000000e+01,9.008159932704254449e-08,-3.059456933493682055e-08,1.573720644022518126e-08
5.000000000000000000e+00,7.600000000000000000e+01,7.693614850129926007e-08,-2.525060874541652848e-08,1.350950717521043097e-08
5.000000000000000000e+00,7.700000000000000000e+01,6.306258497662168256e-08,-2.137521844730945160e-08,1.186619614447037106e-08
5.000000000000000000e+00,7.800000000000000000e+01,5.320375621235851794e-08,-1.740363301444366241e-08,1.002051057759745460e-08
5.000000000000000000e+00,7.900000000000000000e+01,4.302156382142677336e-08,-1.455458934794720003e-08,8.672276955697541912e-09
5.000000000000000000e+00,8.000000000000000000e+01,3.585920230096343412e-08,-1.169123530590075328e-08,7.207394287544676219e-09
5.000000000000000000e+00,8.100000000000000000e+01,2.860677524633742092e-08,-9.660776793814845915e-09,6.149197361733840098e-09
5.000000000000000000e+00,8.200000000000000000e+01,2.356080757749575393e-08,-7.656446455962630602e-09,5.031489721829515848e-09
5.000000000000000000e+00,8.300000000000000000e+01,1.854379580267838923e-08,-6.252213207854613912e-09,4.233809596993347945e-09
5.000000000000000000e+00,8.400000000000000000e+01,1.509318838350905804e-08,-4.888979704418267900e-09,3.411831095531609346e-09
5.000000000000000000e+00,8.500000000000000000e+01,1.172013361161517053e-08,-3.945744030059444535e-09,2.832719028623705191e-09
5.000000000000000000e+00,8.600000000000000000e+01,9.427750326261647653e-09,-3.044214165904569997e-09,2.248978193357451479e-09
5.000000000000000000e+00,8.700000000000000000e+01,7.222177224900267576e-09,-2.428287135235530429e-09,1.843305304189714127e-09
5.000000000000000000e+00,8.800000000000000000e+01,5.741139717882219400e-09,-1.848129350343337553e-09,1.442511742364421864e-09
5.000000000000000000e+00,8.900000000000000000e+01,4.337153740171423848e-09,-1.456634405550463099e-09,1.168122010830052743e-09
5.000000000000000000e+00,9.000000000000000000e+01,3.404895696222113913e-09,-1.092834188536254576e-09,9.020660847963022260e-10
5.000000000000000000e+00,9.100000000000000000e+01,2.533021570578819396e-09,-8.499235385595394600e-10,7.231851301928876417e-10
5.000000000000000000e+00,9.200000000000000000e+01,1.958525435836338630e-09,-6.268587572958791646e-10,5.529126685880859393e-10
5.000000000000000000e+00,9.300000000000000000e+01,1.427196233402647518e-09,-4.785242549696803664e-10,4.414944954493988085e-10
5.000000000000000000e+00,9.400000000000000000e+01,1.075536444937541013e-09,-3.433862832722587399e-10,3.376283403011604340e-10
5.000000000000000000e+00,9.500000000000000000e+01,7.519395528003266495e-10,-2.519820223385274747e-10,2.734026319083645971e-10
5.000000000000000000e+00,9.600000000000000000e+01,5.287311811208118184e-10,-1.684760289842937252e-10,2.154315748877365828e-10
5.000000000000000000e+00,9.700000000000000000e+01,3.210764030248534839e-10,-1.075603481315134539e-10,1.853352951201866882e-10
5.000000000000000000e+00,9.800000000000000000e+01,1.580605908804384419e-10,-5.030854918580967265e-11,1.605382015124267420e-10
5.000000000000000000e+00,9.900000000000000000e+01,0.000000000000000000e+00,-0.000000000000000000e+00,0.000000000000000000e+00
6.000000000000000000e+00,0.000000000000000000e+00,0.000000000000000000e+00,-0.000000000000000000e+00,0.000000000000000000e+00
6.000000000000000000e+00,1.000000000000000000e+00,1.591752778316340695e-10,-4.763715269662657407e-11,-1.619700757528356180e-10
6.000000000000000000e+00,2.000000000000000000e+00,3.239401515056712359e-10,-1.020527165295621816e-10,-1.880203813781596476e-10
6.000000000000000000e+00,3.000000000000000000e+00,5.352160405879533388e-10,-1.603737008683645147e-10,-2.201378317326730274e-10
6.000000000000000000e+00,4.000000000000000000e+00,7.642158149710172906e-10,-2.408609347807732134e-10,-2.816744420062256588e-10
6.000000000000000000e+00,5.000000000000000000e+00,1.098564924600404656e-09,-3.298894566063643670e-10,-3.506573718666982051e-10
6.000000000000000000e+00,6.000000000000000000e+00,1.465530558704413701e-09,-4.622213782931099396e-10,-4.622213782931099396e-10
6.000000000000000000e+00,7.000000000000000000e+00,2.023007681186624536e-09,-6.091553795018240543e-10,-5.833064767731505010e-10
6.000000000000000000e+00,8.000000000000000000e+00,2.632143512250714703e-09,-8.309480423987986152e-10,-7.687386813562245366e-10
6.000000000000000000e+00,9.000000000000000000e+00,3.560485043899073609e-09,-1.075396649943415258e-09,-9.659653593034917293e-10
6.000000000000000000e+00,1.000000000000000000e+01,4.564074230857698161e-09,-1.442527664188721543e-09,-1.260134440492268830e-09
6.000000000000000000e+00,1.100000000000000000e+01,6.080753924883611269e-09,-1.842601207630601560e-09,-1.567549401750378122e-09
6.000000000000000000e+00,1.200000000000000000e+01,7.699173034358454406e-09,-2.436781693432096663e-09,-2.017892655382544860e-09
6.000000000000000000e+00,1.300000000000000000e+01,1.011653923564870099e-08,-3.075961565932971675e-09,-2.480248290967751297e-09
6.000000000000000000e+00,1.400000000000000000e+01,1.265966961629395700e-08,-4.013160220820383228e-09,-3.147347494202994110e-09
6.000000000000000000e+00,1.500000000000000000e+01,1.641123422405468921e-08,-5.007422504037283729e-09,-3.819462462019560804e-09
6.000000000000000000e+00,1.600000000000000000e+01,2.029859454033307861e-08,-6.446265413052326587e-09,-4.775625135351527689e-09
6.000000000000000000e+00,1.700000000000000000e+01,2.596248449475774459e-08,-7.950328684276076365e-09,-5.719394968491517502e-09
6.000000000000000000e+00,1.800000000000000000e+01,3.173738447731611361e-08,-1.009886996626198773e-08,-7.044058732247734379e-09
6.000000000000000000e+00,1.900000000000000000e+01,4.005060195925321334e-08,-1.230973492078305243e-08,-8.322075353497011957e-09
6.000000000000000000e+00,2.000000000000000000e+01,4.838153518431013753e-08,-1.542820370549163686e-08,-1.009292953716358592e-08
6.000000000000000000e+00,2.100000000000000000e+01,6.023646103358038519e-08,-1.858347883090992512e-08,-1.175792015564611185e-08
6.000000000000000000e+00,2.200000000000000000e+01,7.189737549560236122e-08,-2.297994288164722923e-08,-1.403708743303414594e-08
6.000000000000000000e+00,2.300000000000000000e+01,8.831063589964867707e-08,-2.734802541984741721e-08,-1.611703609811607093e-08
6.000000000000000000e+00,2.400000000000000000e+01,1.041314476918345031e-07,-3.336365069905853579e-08,-1.893258531606103179e-08
6.000000000000000000e+00,2.500000000000000000e+01,1.261758065317707407e-07,-3.922294971572170450e-08,-2.141250978319061178e-08
6.000000000000000000e+00,2.600000000000000000e+01,1.469564672582157266e-07,-4.720401559307301291e-08,-2.473698229481220550e-08
6.000000000000000000e+00,2.700000000000000000e+01,1.756497711213951517e-07,-5.480937566457820740e-08,-2.753982573307631842e-08
6.000000000000000000e+00,2.800000000000000000e+01,2.020361187243683635e-07,-6.506473541017091254e-08,-3.126917770325351875e-08
6.000000000000000000e+00,2.900000000000000000e+01,2.381881265279021891e-07,-7.460126752660642820e-08,-3.423986721120119503e-08
6.000000000000000000e+00,3.000000000000000000e+01,2.705158531467707535e-07,-8.734666783716354860e-08,-3.817786546184476689e-08
6.000000000000000000e+00,3.100000000000000000e+01,3.145438574515917229e-07,-9.887430886867176185e-08,-4.107581006940449235e-08
6.000000000000000000e+00,3.200000000000000000e+01,3.526674732855797382e-07,-1.141687256840071395e-07,-4.492987908559969758e-08
6.000000000000000000e+00,3.300000000000000000e+01,4.044036156227911181e-07,-1.275646472795606908e-07,-4.743541665586047096e-08
6.000000000000000000e+00,3.400000000000000000e+01,4.475383065973006802e-07,-1.452479415082716515e-07,-5.082955870345665128e-08
6.000000000000000000e+00,3.500000000000000000e+01,5.060627330297044206e-07,-1.601575873081378621e-07,-5.256854012153400586e-08
6.000000000000000000e+00,3.600000000000000000e+01,5.526753868403686919e-07,-1.798022623238864285e-07,-5.507673693948596413e-08
6.000000000000000000e+00,3.700000000000000000e+01,6.162162069086763489e-07,-1.956121099829207124e-07,-5.566427845592953001e-08
6.000000000000000000e+00,3.800000000000000000e+01,6.640039437522277519e-07,-2.165034072238067880e-07,-5.686367316744409732e-08
6.000000000000000000e+00,3.900000000000000000e+01,7.299435532435645435e-07,-2.323482272878056621e-07,-5.596339378406997648e-08
6.000000000000000000e+00,4.000000000000000000e+01,7.759307313203677049e-07,-2.535049660528622691e-07,-5.550116456431725281e-08
6.000000000000000000e+00,4.100000000000000000e+01,8.409458823721990492e-07,-2.683184336856374266e-07,-5.289093885620277409e-08
6.000000000000000000e+00,4.200000000000000000e+01,8.817126090327732530e-07,-2.885612465550676829e-07,-5.055344991540756795e-08
6.000000000000000000e+00,4.300000000000000000e+01,9.420527822030141851e-07,-3.011711812960708761e-07,-4.618442868973567576e-08
6.000000000000000000e+00,4.400000000000000000e+01,9.740814664122446046e-07,-3.192355993792909398e-07,-4.195377217899902561e-08
6.000000000000000000e+00,4.500000000000000000e+01,1.025960326561012236e-06,-3.284950431432190586e-07,-3.598790585271708481e-08
6.000000000000000000e+00,4.600000000000000000e+01,1.046057278117678774e-06,-3.431760733595730320e-07,-3.007100039608751366e-08
6.000000000000000000e+00,4.700000000000000000e+01,1.086102327353187264e-06,-3.481112848568776512e-07,-2.288479560503873808e-08
6.000000000000000000e+00,4.800000000000000000e+01,1.091826869327756250e-06,-3.584165930976344490e-07,-1.570460306473331163e-08
6.000000000000000000e+00,4.900000000000000000e+01,1.117511533482653887e-06,-3.583659276071792042e-07,-7.853434317915946625e-09
6.000000000000000000e+00,5.000000000000000000e+01,1.107533737963588144e-06,-3.636496378667381734e-07,1.598774687942491890e-20
6.000000000000000000e+00,5.100000000000000000e+01,1.117511533482621911e-06,-3.583659276071699397e-07,7.853434317951204371e-09
6.000000000000000000e+00,5.200000000000000000e+01,1.091826869327685735e-06,-3.584165930976112085e-07,1.570460306479059223e-08
6.000000000000000000e+00,5.300000000000000000e+01,1.086102327353040727e-06,-3.481112848568357760e-07,2.288479560512926473e-08
6.000000000000000000e+00,5.400000000000000000e+01,1.046057278117427205e-06,-3.431760733594907640e-07,3.007100039625670849e-08
6.000000000000000000e+00,5.500000000000000000e+01,1.025960326560527310e-06,-3.284950431430799335e-07,3.598790585299681744e-08
6.000000000000000000e+00,5.600000000000000000e+01,9.740814664114335705e-07,-3.192355993790262949e-07,4.195377217952339194e-08
6.000000000000000000e+00,5.700000000000000000e+01,9.420527822014805260e-07,-3.011711812956307366e-07,4.618442869059811412e-08
6.000000000000000000e+00,5.800000000000000000e+01,8.817126090302373423e-07,-2.885612465542436787e-07,5.055344991700290156e-08
6.000000000000000000e+00,5.900000000000000000e+01,8.409458823674747229e-07,-2.683184336842798446e-07,5.289093885880141824e-08
6.000000000000000000e+00,6.000000000000000000e+01,7.759307313126345058e-07,-2.535049660503573279e-07,5.550116456905502572e-08
6.000000000000000000e+00,6.100000000000000000e+01,7.299435532293646715e-07,-2.323482272837199458e-07,5.596339379170878429e-08
6.000000000000000000e+00,6.200000000000000000e+01,6.640039437292169372e-07,-2.165034072163750268e-07,5.686367318116751337e-08
6.000000000000000000e+00,6.300000000000000000e+01,6.162162068670296447e-07,-1.956121099709207967e-07,5.566427847783078447e-08
6.000000000000000000e+00,6.400000000000000000e+01,5.526753867735553683e-07,-1.798022623023701506e-07,5.507673697825979727e-08
6.000000000000000000e+00,6.500000000000000000e+01,5.060627329105100502e-07,-1.601575872737428452e-07,5.256854018277575850e-08
6.000000000000000000e+00,6.600000000000000000e+01,4.475383064080038513e-07,-1.452479414474773705e-07,5.082955881030469597e-08
6.000000000000000000e+00,6.700000000000000000e+01,4.044036152899006582e-07,-1.275646471833541593e-07,4.743541682287366294e-08
6.000000000000000000e+00,6.800000000000000000e+01,3.526674727622565254e-07,-1.141687255163689431e-07,4.492987937276363962e-08
6.000000000000000000e+00,6.900000000000000000e+01,3.145438565443733790e-07,-9.887430860606814892e-08,4.107581051358152893e-08
6.000000000000000000e+00,7.000000000000000000e+01,2.705158517350934676e-07,-8.734666738604560642e-08,3.817786621451870704e-08
6.000000000000000000e+00,7.100000000000000000e+01,2.381881241153359649e-07,-7.460126682712071760e-08,3.423986836317213105e-08
6.000000000000000000e+00,7.200000000000000000e+01,2.020361150087492055e-07,-6.506473422547327042e-08,3.126917962711344320e-08
6.000000000000000000e+00,7.300000000000000000e+01,1.756497648611090785e-07,-5.480937384642143025e-08,2.753982864634993609e-08
6.000000000000000000e+00,7.400000000000000000e+01,1.469564577160493333e-07,-4.720401255696722341e-08,2.473698708996381691e-08
6.000000000000000000e+00,7.500000000000000000e+01,1.261757906811814447e-07,-3.922294510415170612e-08,2.141251696686142028e-08
6.000000000000000000e+00,7.600000000000000000e+01,1.041314237823264927e-07,-3.336364310615386367e-08,1.893259696973195470e-08
6.000000000000000000e+00,7.700000000000000000e+01,8.831059674171753528e-08,-2.734801400631570159e-08,1.611705336858768899e-08
6.000000000000000000e+00,7.800000000000000000e+01,7.189731704515111474e-08,-2.297992435194750031e-08,1.403711504642779704e-08
6.000000000000000000e+00,7.900000000000000000e+01,6.023636664886194120e-08,-1.858345126757832664e-08,1.175796063350382490e-08
6.000000000000000000e+00,8.000000000000000000e+01,4.838139577814346493e-08,-1.542815958059913932e-08,1.009299332442551121e-08
6.000000000000000000e+00,8.100000000000000000e+01,4.005038000001091878e-08,-1.230966997245129869e-08,8.322167832766795142e-09
6.000000000000000000e+00,8.200000000000000000e+01,3.173706011260987465e-08,-1.009876743964099662e-08,7.044202367333036265e-09
6.000000000000000000e+00,8.300000000000000000e+01,2.596197526534484625e-08,-7.950179366894293964e-09,5.719600906824153464e-09
6.000000000000000000e+00,8.400000000000000000e+01,2.029785829896156772e-08,-6.446032974995871167e-09,4.775940380744160205e-09
6.000000000000000000e+00,8.500000000000000000e+01,1.641009450385652584e-08,-5.007087587118634356e-09,3.819909394426154812e-09
6.000000000000000000e+00,8.600000000000000000e+01,1.265803951010925810e-08,-4.012646091999502282e-09,3.148021775177308852e-09
6.000000000000000000e+00,8.700000000000000000e+01,1.011405095350190813e-08,-3.075228702895189569e-09,2.481193432495240743e-09
6.000000000000000000e+00,8.800000000000000000e+01,7.695652645118776610e-09,-2.435672254439609476e-09,2.019297962766009103e-09
6.000000000000000000e+00,8.900000000000000000e+01,6.075455027969889929e-09,-1.841036842744286318e-09,1.569496698261028322e-09
6.000000000000000000e+00,9.000000000000000000e+01,4.556659248596719967e-09,-1.440192218114516996e-09,1.262987856344055438e-09
6.000000000000000000e+00,9.100000000000000000e+01,3.549479315281779053e-09,-1.072139419167928354e-09,9.698734755723264242e-10
6.000000000000000000e+00,9.200000000000000000e+01,2.616912297452067118e-09,-8.261525383568361420e-10,7.743820237484494620e-10
6.000000000000000000e+00,9.300000000000000000e+01,2.000715267784880129e-09,-6.025406140757389057e-10,5.909450329136289355e-10
6.000000000000000000e+00,9.400000000000000000e+01,1.435022231624809247e-09,-4.526173412204533718e-10,4.730903129443594226e-10
6.000000000000000000e+00,9.500000000000000000e+01,1.054534641896161284e-09,-3.167889018588653049e-10,3.651938125871319825e-10
6.000000000000000000e+00,9.600000000000000000e+01,7.046346064505452823e-10,-2.221032655670287994e-10,3.020544161230763808e-10
6.000000000000000000e+00,9.700000000000000000e+01,4.504258096500084707e-10,-1.350736854998230124e-10,2.470647337952723107e-10
6.000000000000000000e+00,9.800000000000000000e+01,2.105051388600006608e-10,-6.632939442994983635e-11,2.252129048250042354e-10
6.000000000000000000e+00,9.900000000000000000e+01,0.000000000000000000e+00,-0.000000000000000000e+00,0.000000000000000000e+00
7.000000000000000000e+00,0.000000000000000000e+00,0.000000000000000000e+00,-0.000000000000000000e+00,0.000000000000000000e+00
7.000000000000000000e+00,1.000000000000000000e+00,2.086873928547753567e-10,-6.294313157916987594e-11,-2.237449792148645903e-10
7.000000000000000000e+00,2.000000000000000000e+00,4.474899584297291806e-10,-1.284391875464714954e-10,-2.467505213815471755e-10
7.000000000000000000e+00,3.000000000000000000e+00,7.021884356178696820e-10,-2.118738853283666127e-10,-3.039288817744291573e-10
7.000000000000000000e+00,4.000000000000000000e+00,1.055347721978587547e-09,-3.034776003928739613e-10,-3.704239697872351907e-10
7.000000000000000000e+00,5.000000000000000000e+00,1.443036375192340063e-09,-4.357388069919581779e-10,-4.838299796040184943e-10
7.000000000000000000e+00,6.000000000000000000e+00,2.023007681186624536e-09,-5.833064767731505010e-10,-6.091553795018240543e-10
7.000000000000000000e+00,7.000000000000000000e+00,2.661347134195988172e-09,-8.044654710976468536e-10,-8.044654710976468536e-10
7.000000000000000000e+00,8.000000000000000000e+00,3.631938623381918243e-09,-1.050538555876328219e-09,-1.015139653579118656e-09
7.000000000000000000e+00,9.000000000000000000e+00,4.691626441354225484e-09,-1.420046158746579348e-09,-1.331814554890179469e-09
7.000000000000000000e+00,1.000000000000000000e+01,6.295567733162277180e-09,-1.827274175067637861e-09,-1.667243093863313588e-09
7.000000000000000000e+00,1.100000000000000000e+01,8.026112629080852660e-09,-2.433128130442034149e-09,-2.160903350946577192e-09
7.000000000000000000e+00,1.200000000000000000e+01,1.061737443505543156e-08,-3.092875954845567910e-09,-2.674874706364887362e-09
7.000000000000000000e+00,1.300000000000000000e+01,1.337586204181062738e-08,-4.062230632267370360e-09,-3.418967737013373921e-09
7.000000000000000000e+00,1.400000000000000000e+01,1.745530990908217941e-08,-5.104028955892205901e-09,-4.179961182095205056e-09
7.000000000000000000e+00,1.500000000000000000e+01,2.173578440600103750e-08,-6.614533368987410810e-09,-5.265484978431621464e-09
7.000000000000000000e+00,1.600000000000000000e+01,2.798627986594542233e-08,-8.215336475080475159e-09,-6.354514128137821024e-09
7.000000000000000000e+00,1.700000000000000000e+01,3.444481266227667954e-08,-1.050562376941813262e-08,-7.886257546651285502e-09
7.000000000000000000e+00,1.800000000000000000e+01,4.375879495924799334e-08,-1.289695960615236754e-08,-9.390794435270639022e-09
7.000000000000000000e+00,1.900000000000000000e+01,5.322640153281795759e-08,-1.627368193145867481e-08,-1.147846064670479439e-08
7.000000000000000000e+00,2.000000000000000000e+01,6.671571625265758211e-08,-1.974382398220982801e-08,-1.348109318261276941e-08
7.000000000000000000e+00,2.100000000000000000e+01,8.018858789804349641e-08,-2.458160476050084968e-08,-1.622398523728636599e-08
7.000000000000000000e+00,2.200000000000000000e+01,9.916368672723031409e-08,-2.946908686895084955e-08,-1.878503771189489648e-08
7.000000000000000000e+00,2.300000000000000000e+01,1.177586633218332894e-07,-3.619905245422056642e-08,-2.224989075577817898e-08
7.000000000000000000e+00,2.400000000000000000e+01,1.436634682387866721e-07,-4.287352999249122468e-08,-2.538442327500067138e-08
7.000000000000000000e+00,2.500000000000000000e+01,1.685275098718346321e-07,-5.195610354520404114e-08,-2.957756583088076897e-08
7.000000000000000000e+00,2.600000000000000000e+01,2.028185999005482100e-07,-6.078315915551668191e-08,-3.322897289649984704e-08
7.000000000000000000e+00,2.700000000000000000e+01,2.349854556648343262e-07,-7.266200903799014102e-08,-3.806619833038412420e-08
7.000000000000000000e+00,2.800000000000000000e+01,2.789509965613164584e-07,-8.395040426723684715e-08,-4.208083086033551713e-08
7.000000000000000000e+00,2.900000000000000000e+01,3.191471173855053605e-07,-9.898718863650905444e-08,-4.736078723232966739e-08
7.000000000000000000e+00,3.000000000000000000e+01,3.736725710259757932e-07,-1.129204743079663369e-07,-5.147011831163972821e-08
7.000000000000000000e+00,3.100000000000000000e+01,4.220873540087848169e-07,-1.313143559654400778e-07,-5.685899863774694731e-08
7.000000000000000000e+00,3.200000000000000000e+01,4.873905683014696878e-07,-1.478734753661254313e-07,-6.067706899207933548e-08
7.000000000000000000e+00,3.300000000000000000e+01,5.434414919929434879e-07,-1.695748243529082090e-07,-6.571300315139439263e-08
7.000000000000000000e+00,3.400000000000000000e+01,6.188165746042584731e-07,-1.884636069753178468e-07,-6.875633956953531468e-08
7.000000000000000000e+00,3.500000000000000000e+01,6.809541711320141172e-07,-2.130967529142755505e-07,-7.288027368577940640e-08
7.000000000000000000e+00,3.600000000000000000e+01,7.645771219758172859e-07,-2.336866314052213344e-07,-7.461449086894456430e-08
7.000000000000000000e+00,3.700000000000000000e+01,8.301831528699032458e-07,-2.605002965823798836e-07,-7.723000283028865901e-08
7.000000000000000000e+00,3.800000000000000000e+01,9.190371276363946039e-07,-2.818124122053064611e-07,-7.714177960504072555e-08
7.000000000000000000e+00,3.900000000000000000e+01,9.844667120799846969e-07,-3.096766586786791712e-07,-7.769952479933332717e-08
7.000000000000000000e+00,4.000000000000000000e+01,1.074436177235061258e-06,-3.304170631510983464e-07,-7.538540928047342507e-08
7.000000000000000000e+00,4.100000000000000000e+01,1.135237530640931547e-06,-3.578807481527589371e-07,-7.348005935238857179e-08
7.000000000000000000e+00,4.200000000000000000e+01,1.221396295939838402e-06,-3.765367662912340448e-07,-6.873642020392641377e-08
7.000000000000000000e+00,4.300000000000000000e+01,1.272710371048784375e-06,-4.019493241395877530e-07,-6.419731513296835063e-08
7.000000000000000000e+00,4.400000000000000000e+01,1.349790926205775103e-06,-4.169429082172456211e-07,-5.709118376757833876e-08
7.000000000000000000e+00,4.500000000000000000e+01,1.386892738583941052e-06,-4.386302391896667947e-07,-5.004506784828660959e-08
7.000000000000000000e+00,4.600000000000000000e+01,1.449881061902348322e-06,-4.485097568577137670e-07,-4.094593046052076133e-08
7.000000000000000000e+00,4.700000000000000000e+01,1.468784599504982575e-06,-4.649794035144251617e-07,-3.183305432154408483e-08
7.000000000000000000e+00,4.800000000000000000e+01,1.513547170545436492e-06,-4.686186930356729981e-07,-2.139199839413046871e-08
7.000000000000000000e+00,4.900000000000000000e+01,1.511568596293243512e-06,-4.787587090186548508e-07,-1.092585660480720842e-08
7.000000000000000000e+00,5.000000000000000000e+01,1.535398883755050909e-06,-4.755257207151176864e-07,2.022291161569642060e-20
7.000000000000000000e+00,5.100000000000000000e+01,1.511568596293203066e-06,-4.787587090186420394e-07,1.092585660485803039e-08
7.000000000000000000e+00,5.200000000000000000e+01,1.513547170545334848e-06,-4.686186930356449401e-07,2.139199839420225476e-08
7.000000000000000000e+00,5.300000000000000000e+01,1.468784599504798557e-06,-4.649794035143673517e-07,3.183305432167410438e-08
7.000000000000000000e+00,5.400000000000000000e+01,1.449881061901986639e-06,-4.485097568576146642e-07,4.094593046073400187e-08
7.000000000000000000e+00,5.500000000000000000e+01,1.386892738583330553e-06,-4.386302391894758946e-07,5.004506784868746794e-08
7.000000000000000000e+00,5.600000000000000000e+01,1.349790926204611703e-06,-4.169429082169260779e-07,5.709118376824008325e-08
7.000000000000000000e+00,5.700000000000000000e+01,1.272710371046850387e-06,-4.019493241389856714e-07,6.419731513420014829e-08
7.000000000000000000e+00,5.800000000000000000e+01,1.221396295936211407e-06,-3.765367662902369282e-07,6.873642020594415213e-08
7.000000000000000000e+00,5.900000000000000000e+01,1.135237530634962082e-06,-3.578807481509068995e-07,7.348005935609158808e-08
7.000000000000000000e+00,6.000000000000000000e+01,1.074436177224028231e-06,-3.304170631480610980e-07,7.538540928647719460e-08
7.000000000000000000e+00,6.100000000000000000e+01,9.844667120620076932e-07,-3.096766586731193528e-07,7.769952481019181309e-08
7.000000000000000000e+00,6.200000000000000000e+01,9.190371276036446044e-07,-2.818124121962790487e-07,7.714177962246631086e-08
7.000000000000000000e+00,6.300000000000000000e+01,8.301831528170750714e-07,-2.605002965660900636e-07,7.723000286134623375e-08
7.000000000000000000e+00,6.400000000000000000e+01,7.645771218809521369e-07,-2.336866313790349932e-07,7.461449091827581608e-08
7.000000000000000000e+00,6.500000000000000000e+01,6.809541709805234393e-07,-2.130967528676944558e-07,7.288027377242531825e-08
7.000000000000000000e+00,6.600000000000000000e+01,6.188165743361015004e-07,-1.884636069011872174e-07,6.875633970574218307e-08
7.000000000000000000e+00,6.700000000000000000e+01,5.434414915690390731e-07,-1.695748242229114421e-07,6.571300338716421356e-08
7.000000000000000000e+00,6.800000000000000000e+01,4.873905675617730733e-07,-1.478734751613274760e-07,6.067706935885685715e-08
7.000000000000000000e+00,6.900000000000000000e+01,4.220873528513253588e-07,-1.313143556113749590e-07,5.685899926344854432e-08
7.000000000000000000e+00,7.000000000000000000e+01,3.736725690348759846e-07,-1.129204737558150459e-07,5.147011927483286803e-08
7.000000000000000000e+00,7.100000000000000000e+01,3.191471143016596228e-07,-9.898718769536385137e-08,4.736078885176468006e-08
7.000000000000000000e+00,7.200000000000000000e+01,2.789509913313466245e-07,-8.395040281449761410e-08,4.208083332698374948e-08
7.000000000000000000e+00,7.300000000000000000e+01,2.349854476476921238e-07,-7.266200659655132972e-08,3.806620241783127756e-08
7.000000000000000000e+00,7.400000000000000000e+01,2.028185864956840694e-07,-6.078315542553340681e-08,3.322897905617308354e-08
7.000000000000000000e+00,7.500000000000000000e+01,1.685274895353459567e-07,-5.195609736443914162e-08,2.957757589103854100e-08
7.000000000000000000e+00,7.600000000000000000e+01,1.436634347136069874e-07,-4.287352064690913462e-08,2.538443827304643549e-08
7.000000000000000000e+00,7.700000000000000000e+01,1.177586129892530857e-07,-3.619903718434770864e-08,2.224991489867673441e-08
7.000000000000000000e+00,7.800000000000000000e+01,9.916360491625351857e-08,-2.946906401955556671e-08,1.878507331633482955e-08
7.000000000000000000e+00,7.900000000000000000e+01,8.018846635658342665e-08,-2.458156794650252662e-08,1.622404172704590291e-08
7.000000000000000000e+00,8.000000000000000000e+01,6.671552146216171276e-08,-1.974376946942400547e-08,1.348117558267170417e-08
7.000000000000000000e+00,8.100000000000000000e+01,5.322611519124001830e-08,-1.627359532303785261e-08,1.147858950269198280e-08
7.000000000000000000e+00,8.200000000000000000e+01,4.375834245677774716e-08,-1.289683270625995155e-08,9.390980327386520572e-09
7.000000000000000000e+00,8.300000000000000000e+01,3.444415453646697716e-08,-1.050542494976959817e-08,7.886544061638473396e-09
7.000000000000000000e+00,8.400000000000000000e+01,2.798525433350080037e-08,-8.215048241655417634e-09,6.354922875307268955e-09
7.000000000000000000e+00,8.500000000000000000e+01,2.173430878585243925e-08,-6.614088030819778970e-09,5.266105911620074076e-09
7.000000000000000000e+00,8.600000000000000000e+01,1.745304251026065222e-08,-5.103390214119748637e-09,4.180837077580896266e-09
7.000000000000000000e+00,8.700000000000000000e+01,1.337263463069064671e-08,-4.061257374697402117e-09,3.420279141749606933e-09
7.000000000000000000e+00,8.800000000000000000e+01,1.061248422676143835e-08,-3.091495004575810103e-09,2.676703602515325114e-09
7.000000000000000000e+00,8.900000000000000000e+01,8.019227425659996485e-09,-2.431053003628495917e-09,2.163602047155145223e-09
7.000000000000000000e+00,9.000000000000000000e+01,6.285280132451147906e-09,-1.824361634675698918e-09,1.670963508372660190e-09
7.000000000000000000e+00,9.100000000000000000e+01,4.677300408914676104e-09,-1.415729900013368686e-09,1.337224809950568496e-09
7.000000000000000000e+00,9.200000000000000000e+01,3.610830512550010914e-09,-1.044546560802309210e-09,1.022511473680275387e-09
7.000000000000000000e+00,9.300000000000000000e+01,2.632277461554125329e-09,-7.957080181616367956e-10,8.150296925857815786e-10
7.000000000000000000e+00,9.400000000000000000e+01,1.980771127378447756e-09,-5.712828630625470249e-10,6.233800525180340348e-10
7.000000000000000000e+00,9.500000000000000000e+01,1.385517356518057259e-09,-4.184083151129547657e-10,5.039167075617891696e-10
7.000000000000000000e+00,9.600000000000000000e+01,9.729377122548694172e-10,-2.799480102038949819e-10,3.971467912467788753e-10
7.000000000000000000e+00,9.700000000000000000e+01,5.912237740244995088e-10,-1.784270831866603888e-10,3.411091662572656513e-10
7.000000000000000000e+00,9.800000000000000000e+01,2.907193797403381146e-10,-8.353846716685406867e-11,2.956118870122497544e-10
7.000000000000000000e+00,9.900000000000000000e+01,0.000000000000000000e+00,-0.000000000000000000e+00,0.000000000000000000e+00
8.000000000000000000e+00,0.000000000000000000e+00,0.000000000000000000e+00,-0.000000000000000000e+00,0.000000000000000000e+00
8.000000000000000000e+00,1.000000000000000000e+00,2.850615409899738214e-10,-7.911568996363670135e-11,-2.904092632993071134e-10
8.000000000000000000e+00,2.000000000000000000e+00,5.808185265986142268e-10,-1.693301576681421684e-10,-3.369511351273563973e-10
8.000000000000000000e+00,3.000000000000000000e+00,9.589638112446865643e-10,-2.665256047420385808e-10,-3.951762445790754932e-10
8.000000000000000000e+00,4.000000000000000000e+00,1.371171015756765213e-09,-4.000274433573576549e-10,-5.055393636698172240e-10
8.000000000000000000e+00,5.000000000000000000e+00,1.970042538584321012e-09,-5.488983831375274522e-10,-6.304862482469747448e-10
8.000000000000000000e+00,6.000000000000000000e+00,2.632143512250714703e-09,-7.687386813562245366e-10,-8.309480423987986152e-10
8.000000000000000000e+00,7.000000000000000000e+00,3.631938623381918243e-09,-1.015139653579118656e-09,-1.050538555876328219e-09
8.000000000000000000e+00,8.000000000000000000e+00,4.733220624003371140e-09,-1.384319369005157031e-09,-1.384319369005157031e-09
8.000000000000000000e+00,9.000000000000000000e+00,6.400577361392232304e-09,-1.795342132286578989e-09,-1.742700978494801372e-09
8.000000000000000000e+00,1.000000000000000000e+01,8.218622580992973884e-09,-2.407753289297899496e-09,-2.273216412187723631e-09
8.000000000000000000e+00,1.100000000000000000e+01,1.094701018576767957e-08,-3.082279095219619380e-09,-2.833151181528308171e-09
8.000000000000000000e+00,1.200000000000000000e+01,1.388492494404959023e-08,-4.075720317380651778e-09,-3.646995157207881070e-09
8.000000000000000000e+00,1.300000000000000000e+01,1.824100050018344171e-08,-5.156482000481030113e-09,-4.491401292014389289e-09
8.000000000000000000e+00,1.400000000000000000e+01,2.286772752807836880e-08,-6.727302436697593316e-09,-5.699650230923034561e-09
8.000000000000000000e+00,1.500000000000000000e+01,2.964030096202951083e-08,-8.413626564494203799e-09,-6.930769981207830062e-09
8.000000000000000000e+00,1.600000000000000000e+01,3.672926749049402893e-08,-1.083157588806932202e-08,-8.666715535782249500e-09
8.000000000000000000e+00,1.700000000000000000e+01,4.697373203359400983e-08,-1.339093226872656804e-08,-1.040101809956340988e-08
8.000000000000000000e+00,1.800000000000000000e+01,5.753130368962084868e-08,-1.701153136902921627e-08,-1.281211689428827656e-08
8.000000000000000000e+00,1.900000000000000000e+01,7.259796582217056296e-08,-2.078676914757756963e-08,-1.516893972955447243e-08
8.000000000000000000e+00,2.000000000000000000e+01,8.786918314872979355e-08,-2.605710795425172505e-08,-1.840085236620576080e-08
8.000000000000000000e+00,2.100000000000000000e+01,1.093996705545820846e-07,-3.146501004615610980e-08,-2.148318304238713338e-08
8.000000000000000000e+00,2.200000000000000000e+01,1.308355492335040603e-07,-3.891763037013672794e-08,-2.565453512675386268e-08
8.000000000000000000e+00,2.300000000000000000e+01,1.607087408080898099e-07,-4.643354095672689992e-08,-2.952147922165644606e-08
8.000000000000000000e+00,2.400000000000000000e+01,1.898785076768169524e-07,-5.666245335055783027e-08,-3.468963640704450651e-08
8.000000000000000000e+00,2.500000000000000000e+01,2.300880136221788229e-07,-6.678574618441934024e-08,-3.932213894621606902e-08
8.000000000000000000e+00,2.600000000000000000e+01,2.685227855692490905e-07,-8.039926522961607288e-08,-4.544288778759830539e-08
8.000000000000000000e+00,2.700000000000000000e+01,3.209737891973754337e-07,-9.359590489181814242e-08,-5.070707084479648366e-08
8.000000000000000000e+00,2.800000000000000000e+01,3.699369272588420578e-07,-1.111434568585052321e-07,-5.759435730177243216e-08
8.000000000000000000e+00,2.900000000000000000e+01,4.361625038009202980e-07,-1.277653250587135121e-07,-6.320993725193068478e-08
8.000000000000000000e+00,3.000000000000000000e+01,4.963568017627034274e-07,-1.496400279400292774e-07,-7.050503279077579026e-08
8.000000000000000000e+00,3.100000000000000000e+01,5.771725693824718785e-07,-1.698261318413174603e-07,-7.602881112756358673e-08
8.000000000000000000e+00,3.200000000000000000e+01,6.484144240178306008e-07,-1.961515749865048216e-07,-8.319034747306782881e-08
8.000000000000000000e+00,3.300000000000000000e+01,7.435532643286075362e-07,-2.197231620198092885e-07,-8.802554826505288652e-08
8.000000000000000000e+00,3.400000000000000000e+01,8.244655205479363739e-07,-2.502404302812616519e-07,-9.435148726482399269e-08
8.000000000000000000e+00,3.500000000000000000e+01,9.322562388582555215e-07,-2.766090073960411446e-07,-9.779156455143749344e-08
8.000000000000000000e+00,3.600000000000000000e+01,1.020048649650811361e-06,-3.105867318899532489e-07,-1.024802806075902972e-07
8.000000000000000000e+00,3.700000000000000000e+01,1.137216800073436116e-06,-3.386988568872250987e-07,-1.037900592560146567e-07
8.000000000000000000e+00,3.800000000000000000e+01,1.227628768162840674e-06,-3.748924197103066135e-07,-1.060400352637433849e-07
8.000000000000000000e+00,3.900000000000000000e+01,1.349296870600922886e-06,-4.032353890789724341e-07,-1.045680447298618617e-07
8.000000000000000000e+00,4.000000000000000000e+01,1.436764857622564398e-06,-4.399188643091728952e-07,-1.037052540383970187e-07
8.000000000000000000e+00,4.100000000000000000e+01,1.556707378677716923e-06,-4.666050449043543029e-07,-9.901064199633847246e-08
8.000000000000000000e+00,4.200000000000000000e+01,1.634786141615241343e-06,-5.016895347121000080e-07,-9.462202590223638388e-08
8.000000000000000000e+00,4.300000000000000000e+01,1.745951430482189691e-06,-5.246235874367014255e-07,-8.659057061574725210e-08
8.000000000000000000e+00,4.400000000000000000e+01,1.807967282846735847e-06,-5.558588739927905262e-07,-7.863468722907806727e-08
8.000000000000000000e+00,4.500000000000000000e+01,1.903220804940345826e-06,-5.729733990203842943e-07,-6.755475449318523075e-08
8.000000000000000000e+00,4.600000000000000000e+01,1.943076791833106308e-06,-5.982094873235290515e-07,-5.642016472084588072e-08
8.000000000000000000e+00,4.700000000000000000e+01,2.016061134382037587e-06,-6.077351210153055124e-07,-4.299373178299796914e-08
8.000000000000000000e+00,4.800000000000000000e+01,2.029064255399102247e-06,-6.252017776123937571e-07,-2.948390856896300071e-08
8.000000000000000000e+00,4.900000000000000000e+01,2.075028951519963588e-06,-6.259235039640216811e-07,-1.476046199736063493e-08
8.000000000000000000e+00,5.000000000000000000e+01,2.058585179393823516e-06,-6.344755231702815347e-07,2.879912020664621153e-20
8.000000000000000000e+00,5.100000000000000000e+01,2.075028951519905990e-06,-6.259235039640065404e-07,1.476046199742395065e-08
8.000000000000000000e+00,5.200000000000000000e+01,2.029064255398975615e-06,-6.252017776123556407e-07,2.948390856906527993e-08
8.000000000000000000e+00,5.300000000000000000e+01,2.016061134381775430e-06,-6.077351210152361616e-07,4.299373178315954067e-08
8.000000000000000000e+00,5.400000000000000000e+01,1.943076791832656534e-06,-5.982094873233931027e-07,5.642016472114816560e-08
8.000000000000000000e+00,5.500000000000000000e+01,1.903220804939479099e-06,-5.729733990201544307e-07,6.755475449368540370e-08
8.000000000000000000e+00,5.600000000000000000e+01,1.807967282845285726e-06,-5.558588739923545160e-07,7.863468723001361516e-08
8.000000000000000000e+00,5.700000000000000000e+01,1.745951430479451869e-06,-5.246235874359743535e-07,8.659057061728726388e-08
8.000000000000000000e+00,5.800000000000000000e+01,1.634786141610711199e-06,-5.016895347107411553e-07,9.462202590508167343e-08
8.000000000000000000e+00,5.900000000000000000e+01,1.556707378669288522e-06,-4.666050449021139008e-07,9.901064200097724840e-08
8.000000000000000000e+00,6.000000000000000000e+01,1.436764857608756702e-06,-4.399188643050446683e-07,1.037052540468425725e-07
8.000000000000000000e+00,6.100000000000000000e+01,1.349296870575603377e-06,-4.032353890722332282e-07,1.045680447434908336e-07
8.000000000000000000e+00,6.200000000000000000e+01,1.227628768121775035e-06,-3.748924196980677815e-07,1.060400352881968026e-07
8.000000000000000000e+00,6.300000000000000000e+01,1.137216799999209772e-06,-3.386988568674415855e-07,1.037900592950748399e-07
8.000000000000000000e+00,6.400000000000000000e+01,1.020048649531625355e-06,-3.105867318545355191e-07,1.024802806766554050e-07
8.000000000000000000e+00,6.500000000000000000e+01,9.322562386458989618e-07,-2.766090073393611408e-07,9.779156466062353435e-08
8.000000000000000000e+00,6.600000000000000000e+01,8.244655202103782860e-07,-2.502404301812273255e-07,9.435148745508770967e-08
8.000000000000000000e+00,6.700000000000000000e+01,7.435532637357235425e-07,-2.197231618613264594e-07,8.802554856273340435e-08
8.000000000000000000e+00,6.800000000000000000e+01,6.484144230849114773e-07,-1.961515747107505457e-07,8.319034798430012278e-08
8.000000000000000000e+00,6.900000000000000000e+01,5.771725677671232969e-07,-1.698261314088461808e-07,7.602881191909395896e-08
8.000000000000000000e+00,7.000000000000000000e+01,4.963567992467235594e-07,-1.496400271981388476e-07,7.050503413052981463e-08
8.000000000000000000e+00,7.100000000000000000e+01,4.361624995060636677e-07,-1.277653239069823526e-07,6.320993930448956287e-08
8.000000000000000000e+00,7.200000000000000000e+01,3.699369206377444337e-07,-1.111434549104781342e-07,5.759436072592596486e-08
8.000000000000000000e+00,7.300000000000000000e+01,3.209737780542117379e-07,-9.359590189846827985e-08,5.070707603531414338e-08
8.000000000000000000e+00,7.400000000000000000e+01,2.685227685671161469e-07,-8.039926023754119940e-08,4.544289632207600501e-08
8.000000000000000000e+00,7.500000000000000000e+01,2.300879854100597279e-07,-6.678573859220164493e-08,3.932215174548569247e-08
8.000000000000000000e+00,7.600000000000000000e+01,1.898784650761447620e-07,-5.666244086553143484e-08,3.468965714982338768e-08
8.000000000000000000e+00,7.700000000000000000e+01,1.607086711104129526e-07,-4.643352216463329136e-08,2.952150999594125690e-08
8.000000000000000000e+00,7.800000000000000000e+01,1.308354450842622482e-07,-3.891759989752497766e-08,2.565458428427297906e-08
8.000000000000000000e+00,7.900000000000000000e+01,1.093995025418669944e-07,-3.146496465559456692e-08,2.148325518363538615e-08
8.000000000000000000e+00,8.000000000000000000e+01,8.786893471699147586e-08,-2.605703537221794901e-08,1.840096594789018522e-08
8.000000000000000000e+00,8.100000000000000000e+01,7.259757064608662400e-08,-2.078666216180064477e-08,1.516910459593084905e-08
8.000000000000000000e+00,8.200000000000000000e+01,5.753072552512977775e-08,-1.701136266215843985e-08,1.281237274060129070e-08
8.000000000000000000e+00,8.300000000000000000e+01,4.697282516488404260e-08,-1.339068620917728087e-08,1.040138537142868738e-08
8.000000000000000000e+00,8.400000000000000000e+01,3.672795478227240299e-08,-1.083119323719908958e-08,8.667277299693979409e-09
8.000000000000000000e+00,8.500000000000000000e+01,2.963827056549608378e-08,-8.413074374349457947e-09,6.931567421961823810e-09
8.000000000000000000e+00,8.600000000000000000e+01,2.286481993834875537e-08,-6.726455564642508613e-09,5.700852431299685705e-09
8.000000000000000000e+00,8.700000000000000000e+01,1.823656570289671237e-08,-5.155272938983609257e-09,4.493088642039179276e-09
8.000000000000000000e+00,8.800000000000000000e+01,1.387864265427039682e-08,-4.073891572287226819e-09,3.649502333834915302e-09
8.000000000000000000e+00,8.900000000000000000e+01,1.093756103522688176e-08,-3.079696285110359459e-09,2.836630068161139507e-09
8.000000000000000000e+00,9.000000000000000000e+01,8.205382517948117803e-09,-2.403900461497425545e-09,2.278310959959182669e-09
8.000000000000000000e+00,9.100000000000000000e+01,6.380939115308516426e-09,-1.789959567316819071e-09,1.749688549445716132e-09
8.000000000000000000e+00,9.200000000000000000e+01,4.706005419056685539e-09,-1.376400505837027990e-09,1.394403905600181353e-09
8.000000000000000000e+00,9.300000000000000000e+01,3.592131304108153720e-09,-1.004197526161385716e-09,1.064208730653391121e-09
8.000000000000000000e+00,9.400000000000000000e+01,2.577587957749903297e-09,-7.528618864345684225e-10,8.503900159930414525e-10
8.000000000000000000e+00,9.500000000000000000e+01,1.891351272122070815e-09,-5.272020353387796436e-10,6.565286654457840256e-10
8.000000000000000000e+00,9.600000000000000000e+01,1.264530626858335246e-09,-3.689795049378570939e-10,5.420356480493707836e-10
8.000000000000000000e+00,9.700000000000000000e+01,8.072799760233292483e-10,-2.245696814949133240e-10,4.434742768323132498e-10
8.000000000000000000e+00,9.800000000000000000e+01,3.775820731937087982e-10,-1.101170370250044216e-10,4.036399880116646241e-10
8.000000000000000000e+00,9.900000000000000000e+01,0.000000000000000000e+00,-0.000000000000000000e+00,0.000000000000000000e+00
9.000000000000000000e+00,0.000000000000000000e+00,0.000000000000000000e+00,-0.000000000000000000e+00,0.000000000000000000e+00
9.000000000000000000e+00,1.000000000000000000e+00,3.669187727820487594e-10,-1.038420317986673250e-10,-3.930751368830067588e-10
9.000000000000000000e+00,2.000000000000000000e+00,7.861502737660135175e-10,-2.121907861544760773e-10,-4.341604361599490162e-10
9.000000000000000000e+00,3.000000000000000000e+00,1.235239645101946844e-09,-3.497816589996993336e-10,-5.346261674636446696e-10
9.000000000000000000e+00,4.000000000000000000e+00,1.855402608693302857e-09,-5.018525381895034940e-10,-6.527967481827240621e-10
9.000000000000000000e+00,5.000000000000000000e+00,2.540833141467394968e-09,-7.202349331002565406e-10,-8.525412176028853761e-10
9.000000000000000000e+00,6.000000000000000000e+00,3.560485043899073609e-09,-9.659653593034917293e-10,-1.075396649943415258e-09
9.000000000000000000e+00,7.000000000000000000e+00,4.691626441354225484e-09,-1.331814554890179882e-09,-1.420046158746579348e-09
9.000000000000000000e+00,8.000000000000000000e+00,6.400577361392232304e-09,-1.742700978494803026e-09,-1.795342132286578989e-09
9.000000000000000000e+00,9.000000000000000000e+00,8.282310705927383462e-09,-2.355248475182921934e-09,-2.355248475182921934e-09
9.000000000000000000e+00,1.000000000000000000e+01,1.111107431175807617e-08,-3.037069530358145541e-09,-2.954180056796353979e-09
9.000000000000000000e+00,1.100000000000000000e+01,1.419067081952009142e-08,-4.043720018785515493e-09,-3.828870379029329474e-09
9.000000000000000000e+00,1.200000000000000000e+01,1.876881506981673512e-08,-5.151465001134759715e-09,-4.749077611626298095e-09
9.000000000000000000e+00,1.300000000000000000e+01,2.368882604277268761e-08,-6.766050803424533179e-09,-6.070549856330315460e-09
9.000000000000000000e+00,1.400000000000000000e+01,3.090991478247736604e-08,-8.520564591843149656e-09,-7.437105746108378742e-09
9.000000000000000000e+00,1.500000000000000000e+01,3.856303753498944509e-08,-1.104312551707623748e-08,-9.369758429803350167e-09
9.000000000000000000e+00,1.600000000000000000e+01,4.964943164208406637e-08,-1.374780264469604765e-08,-1.133181983237018526e-08
9.000000000000000000e+00,1.700000000000000000e+01,6.122667719972981562e-08,-1.758330884981431387e-08,-1.406621302761117975e-08
9.000000000000000000e+00,1.800000000000000000e+01,7.778185769730642588e-08,-2.163764089537940676e-08,-1.678663131412164062e-08
9.000000000000000000e+00,1.900000000000000000e+01,9.479993982797309685e-08,-2.730927916573067440e-08,-2.052403723192730317e-08
9.000000000000000000e+00,2.000000000000000000e+01,1.188299321611610322e-07,-3.321434306564452631e-08,-2.415933408119130958e-08
9.000000000000000000e+00,2.100000000000000000e+01,1.431186079903557160e-07,-4.136513628389038188e-08,-2.908450765317136887e-08
9.000000000000000000e+00,2.200000000000000000e+01,1.769989474675037700e-07,-4.971457008019661033e-08,-3.375356862246568660e-08
9.000000000000000000e+00,2.300000000000000000e+01,2.106257452352870892e-07,-6.108970217010547508e-08,-3.999471373619928131e-08
9.000000000000000000e+00,2.400000000000000000e+01,2.569883749399023326e-07,-7.253893643200190877e-08,-4.573662850269311170e-08
9.000000000000000000e+00,2.500000000000000000e+01,3.020990022406733126e-07,-8.794093877462354816e-08,-5.331437770993901159e-08
9.000000000000000000e+00,2.600000000000000000e+01,3.636171303597803558e-07,-1.031481940472177265e-07,-6.003913160389864921e-08
9.000000000000000000e+00,2.700000000000000000e+01,4.221772654484706110e-07,-1.233589519918551406e-07,-6.881038995927328342e-08
9.000000000000000000e+00,2.800000000000000000e+01,5.012379102783269226e-07,-1.428945375756690000e-07,-7.625025102723088681e-08
9.000000000000000000e+00,2.900000000000000000e+01,5.746777675029323847e-07,-1.685626052631645822e-07,-8.585735831385371274e-08
9.000000000000000000e+00,3.000000000000000000e+01,6.729526269060343481e-07,-1.927888396702279402e-07,-9.353092509424367642e-08
9.000000000000000000e+00,3.100000000000000000e+01,7.617396176914197375e-07,-2.242880293843967887e-07,-1.033705456842224914e-07
9.000000000000000000e+00,3.200000000000000000e+01,8.796937182744793309e-07,-2.532204623451638303e-07,-1.105740991705711636e-07
9.000000000000000000e+00,3.300000000000000000e+01,9.828878160325620648e-07,-2.904954355422634763e-07,-1.198018584461512230e-07
9.000000000000000000e+00,3.400000000000000000e+01,1.119297435166781777e-06,-3.236657806500319077e-07,-1.256421849457671708e-07
9.000000000000000000e+00,3.500000000000000000e+01,1.234172185924096406e-06,-3.660905679210721600e-07,-1.332265752944710034e-07
9.000000000000000000e+00,3.600000000000000000e+01,1.385750585755723784e-06,-4.024404767117719784e-07,-1.367043403601285184e-07
9.000000000000000000e+00,3.700000000000000000e+01,1.507580866644353443e-06,-4.487234995264146160e-07,-1.415356906506420236e-07
9.000000000000000000e+00,3.800000000000000000e+01,1.668821967057007831e-06,-4.865627352248282255e-07,-1.416783117967880609e-07
9.000000000000000000e+00,3.900000000000000000e+01,1.790937490237929565e-06,-5.347333967731905821e-07,-1.427259693981996088e-07
9.000000000000000000e+00,4.000000000000000000e+01,1.954273905853407049e-06,-5.717927283822548084e-07,-1.387550651058552939e-07
9.000000000000000000e+00,4.100000000000000000e+01,2.068447620449640153e-06,-6.192969135476861754e-07,-1.352507297553156846e-07
9.000000000000000000e+00,4.200000000000000000e+01,2.224775365364038418e-06,-6.528930259811479419e-07,-1.267549627362735363e-07
9.000000000000000000e+00,4.300000000000000000e+01,2.321957545922187225e-06,-6.968068569946306958e-07,-1.183666544136588689e-07
9.000000000000000000e+00,4.400000000000000000e+01,2.461508674191356156e-06,-7.241143499653809633e-07,-1.054409953512612076e-07
9.000000000000000000e+00,4.500000000000000000e+01,2.532839536624709641e-06,-7.614595867434397301e-07,-9.239568117902513482e-08
9.000000000000000000e+00,4.600000000000000000e+01,2.646300036549406425e-06,-7.798579278425232321e-07,-7.570765245544197948e-08
9.000000000000000000e+00,4.700000000000000000e+01,2.684254841535593600e-06,-8.079744963457160262e-07,-5.882534461040879051e-08
