0.000000000000000000e+00 0.000000000000000000e+00 0.000000000000000000e+00 0.000000000000000000e+00 0.000000000000000000e+00 0.000000000000000000e+00 0.000000000000000000e+00 0.000000000000000000e+00 0.000000000000000000e+00 0.000000000000000000e+00 0.000000000000000000e+00 0.000000000000000000e+00 0.000000000000000000e+00 0.000000000000000000e+00 0.000000000000000000e+00 0.000000000000000000e+00 0.000000000000000000e+00 0.000000000000000000e+00 0.000000000000000000e+00 0.000000000000000000e+00 0.000000000000000000e+00 0.000000000000000000e+00 0.000000000000000000e+00 0.000000000000000000e+00 0.000000000000000000e+00 0.000000000000000000e+00 0.000000000000000000e+00 0.000000000000000000e+00 0.000000000000000000e+00 0.000000000000000000e+00 0.000000000000000000e+00 0.000000000000000000e+00 0.000000000000000000e+00 0.000000000000000000e+00 0.000000000000000000e+00 0.000000000000000000e+00 0.000000000000000000e+00 0.000000000000000000e+00 0.000000000000000000e+00 0.000000000000000000e+00 0.000000000000000000e+00 0.000000000000000000e+00 0.000000000000000000e+00 0.000000000000000000e+00 0.000000000000000000e+00 0.000000000000000000e+00 0.000000000000000000e+00 0.000000000000000000e+00 0.000000000000000000e+00 0.000000000000000000e+00 0.000000000000000000e+00 0.000000000000000000e+00 0.000000000000000000e+00 0.000000000000000000e+00 0.000000000000000000e+00 0.000000000000000000e+00 0.000000000000000000e+00 0.000000000000000000e+00 0.000000000000000000e+00 0.000000000000000000e+00 0.000000000000000000e+00 0.000000000000000000e+00 0.000000000000000000e+00 0.000000000000000000e+00 0.000000000000000000e+00 0.000000000000000000e+00 0.000000000000000000e+00 0.000000000000000000e+00 0.000000000000000000e+00 0.000000000000000000e+00 0.000000000000000000e+00 0.000000000000000000e+00 0.000000000000000000e+00 0.000000000000000000e+00 0.000000000000000000e+00 0.000000000000000000e+00 0.000000000000000000e+00 0.000000000000000000e+00 0.000000000000000000e+00 0.000000000000000000e+00 0.000000000000000000e+00 0.000000000000000000e+00 0.000000000000000000e+00 0.000000000000000000e+00 0.000000000000000000e+00 0.000000000000000000e+00 0.000000000000000000e+00 0.000000000000000000e+00 0.000000000000000000e+00 0.000000000000000000e+00 0.000000000000000000e+00 0.000000000000000000e+00 0.000000000000000000e+00 0.000000000000000000e+00 0.000000000000000000e+00 0.000000000000000000e+00 0.000000000000000000e+00 0.000000000000000000e+00 0.000000000000000000e+00 0.000000000000000000e+00
0.000000000000000000e+00 1.644624223479643901e-11 3.533109095093983914e-11 5.528408061548246754e-11 8.320750022120547368e-11 1.134130874615222086e-10 1.591752778316340695e-10 2.086873928547753567e-10 2.850615409899737697e-10 3.669187727820486560e-10 4.927456045873084713e-10 6.258713375863483947e-10 8.284855011566277419e-10 1.039763023122309592e-09 1.357626217151222964e-09 1.683952053234831226e-09 2.169180508853334262e-09 2.659111412008164371e-09 3.379358742043275879e-09 4.093762870532541671e-09 5.132689286169678059e-09 6.143636295092507156e-09 7.599025265660667780e-09 8.986073818272982774e-09 1.096463501473026728e-08 1.280778528770069349e-08 1.541590381648659930e-08 1.778485599501849388e-08 2.111508634365370594e-08 2.405512253407742952e-08 2.816909308583678579e-08 3.168483908691107333e-08 3.659433973555158157e-08 4.063371546132399791e-08 4.628287414695715690e-08 5.072444660923995639e-08 5.697674131651335714e-08 6.162412095334640330e-08 6.825816258615427078e-08 7.284471992000032379e-08 7.956199158122736626e-08 8.376784416829885827e-08 9.021380974103886896e-08 9.369482154996981594e-08 9.949223970675580287e-08 1.019180797650204994e-07 1.067085139760314989e-07 1.078042934722725051e-07 1.112914403617326282e-07 1.108758376154119175e-07 1.128631465346962148e-07 1.108758376154087676e-07 1.112914403617245947e-07 1.078042934722579865e-07 1.067085139760028586e-07 1.019180797649722185e-07 9.949223970666355569e-08 9.369482154981667503e-08 9.021380974075074541e-08 8.376784416782553891e-08 7.956199158034978718e-08 7.284471991857312621e-08 6.825816258354642839e-08 6.162412094914787274e-08 5.697674130895194034e-08 5.072444659718901351e-08 4.628287412556504203e-08 4.063371542757594213e-08 3.659433967650054069e-08 3.168483899470223289e-08 2.816909292679353857e-08 2.405512228827692532e-08 2.111508592572102570e-08 1.778485535577198970e-08 1.541590274499454992e-08 1.280778366582917235e-08 1.096463233464190666e-08 8.986069803953070616e-09 7.599018725768505894e-09 6.143626602554179424e-09 5.132673718104953459e-09 4.093740042263416939e-09 3.379322591098665455e-09 2.659058968077869119e-09 2.169098624510477266e-09 1.683834542441940695e-09 1.357445312432732076e-09 1.039506225965091160e-09 8.280957079517922170e-10 6.253240722873561248e-10 4.919265423675044120e-10 3.657815088830956638e-10 2.833832955871784007e-10 2.063831138990411233e-10 1.558225236696615395e-10 1.088614487795612157e-10 7.667768966882407448e-11 4.652011500831250583e-11 2.293487003892937054e-11 0.000000000000000000e+00
0.000000000000000000e+00 3.533109095093983914e-11 7.177285688136915844e-11 1.187187014071052341e-10 1.691590818470068587e-10 2.433845253706048175e-10 3.239401515056711842e-10 4.474899584297291806e-10 5.808185265986142268e-10 7.861502737660135175e-10 1.005200098907566381e-09 1.339933382651448361e-09 1.692150232046496105e-09 2.224428093364403194e-09 2.776176618856015065e-09 3.600196597666383479e-09 4.440798024466559908e-09 5.681630136226668973e-09 6.925995966138267095e-09 8.742311743654901747e-09 1.053073547862707095e-08 1.311362932291256064e-08 1.560700756840704865e-08 1.917285973335961075e-08 2.254161870945333454e-08 2.731712730899172945e-08 3.172261255893202892e-08 3.792089927715197633e-08 4.348908142225084348e-08 5.127725607200566077e-08 5.806632530222318827e-08 6.752700853859956685e-08 7.549258458073537020e-08 8.658432270761298481e-08 9.554816209828841449e-08 1.080718542063241396e-07 1.177014521866589712e-07 1.312811071398457356e-07 1.410877557528483202e-07 1.551733839243053763e-07 1.645345073766408190e-07 1.784322962746847720e-07 1.866401083928589139e-07 1.995703477079008980e-07 2.059035552799938238e-07 2.170808672080524188e-07 2.208904109494912367e-07 2.296151052667021328e-07 2.304103354489443307e-07 2.361557935720397080e-07 2.336755287465360243e-07 2.361557935720325876e-07 2.304103354489286606e-07 2.296151052666695485e-07 2.208904109494353590e-07 2.170808672079445015e-07 2.059035552798136440e-07 1.995703477075593320e-07 1.866401083922948958e-07 1.784322962736316454e-07 1.645345073749192510e-07 1.551733839211374731e-07 1.410877557477215474e-07 1.312811071305477491e-07 1.177014521717626527e-07 1.080718541796959119e-07 9.554816205605826342e-08 8.658432263320380060e-08 7.549258446392751507e-08 6.752700833572206021e-08 5.806632498700026738e-08 5.127725553230215422e-08 4.348908059230501908e-08 3.792089787634150101e-08 3.172261042708469289e-08 2.731712376172705330e-08 2.254161336721709207e-08 1.917285096975081680e-08 1.560699450866228033e-08 1.311360820114362519e-08 1.053070433477196659e-08 8.742262082640722120e-09 6.925923520078157370e-09 5.681516238265053849e-09 4.440633648866884698e-09 3.599941794345605540e-09 2.775812861349529116e-09 2.223872121451957189e-09 1.691365165621124743e-09 1.338750273542711287e-09 1.003547818124210715e-09 7.836951038428530122e-10 5.774277259755520395e-10 4.425219974363794131e-10 3.171557177097272690e-10 2.335836837998177585e-10 1.559259349353135559e-10 9.987012324584288591e-11 4.661415025913698958e-11 0.000000000000000000e+00
0.000000000000000000e+00 5.528408061548246754e-11 1.187187014071052599e-10 1.858729172272587201e-10 2.796680036879836861e-10 3.814410338811406526e-10 5.352160405879531320e-10 7.021884356178696820e-10 9.589638112446865643e-10 1.235239645101946637e-09 1.658527129244085231e-09 2.108206848650855942e-09 2.790241916274155126e-09 3.504522323082628147e-09 4.575226473020848212e-09 5.679471966981394937e-09 7.315097984436977570e-09 8.974586874870127226e-09 1.140422797810045347e-08 1.382657295673692190e-08 1.733392603588603094e-08 2.076555358448695762e-08 2.568273159978500871e-08 3.039652065764690529e-08 3.708660820682030665e-08 4.335812885030511293e-08 5.218389836660225851e-08 6.025493408821835378e-08 7.153294934839412374e-08 8.156327672086021230e-08 9.550555940015555317e-08 1.075171742275716720e-07 1.241664063816996931e-07 1.379880290182877098e-07 1.571561924018080411e-07 1.723790685034780710e-07 1.936023853922307649e-07 2.095599747171038273e-07 2.320837631576402854e-07 2.478667743194640937e-07 2.706713429363963777e-07 2.851850888351649012e-07 3.070577418649503502e-07 3.191211998407447036e-07 3.387705230438438018e-07 3.472471193030118167e-07 3.634458132622909990e-07 3.673870870014160049e-07 3.791213121040512915e-07 3.778988918378251329e-07 3.844980069913629161e-07 3.778988918378144391e-07 3.791213121040242394e-07 3.673870870013672476e-07 3.634458132621948078e-07 3.472471193028496099e-07 3.387705230435339995e-07 3.191211998402302369e-07 3.070577418639830915e-07 2.851850888335753910e-07 2.706713429334511383e-07 2.478667743146725342e-07 2.320837631488904351e-07 2.095599747030111313e-07 1.936023853668659662e-07 1.723790684630363771e-07 1.571561923300613064e-07 1.379880289050526132e-07 1.241664061836804101e-07 1.075171739182281855e-07 9.550555886689529391e-08 8.156327589634173166e-08 7.153294794723502819e-08 6.025493194410181830e-08 5.218389477456727212e-08 4.335812341063524626e-08 3.708659922250369121e-08 3.039650719413743935e-08 2.568270967652281843e-08 2.076552107660557535e-08 1.733387384643703389e-08 1.382649638929720793e-08 1.140410677977819354e-08 8.974410960183811905e-09 7.314823433671598265e-09 5.679077748790206068e-09 4.574619830178658951e-09 3.503660698500768736e-09 2.788934553766879188e-09 2.106370258253932524e-09 1.655779392838816464e-09 1.231422133222109247e-09 9.533322534878274726e-10 6.944513425273654607e-10 5.239619905438714509e-10 3.661529269927818281e-10 2.577418943975756255e-10 1.564253149594908842e-10 7.707737092183309429e-11 0.000000000000000000e+00
0.000000000000000000e+00 8.320750022120547368e-11 1.691590818470068587e-10 2.796680036879836861e-10 3.988405058922302672e-10 5.736258524170411202e-10 7.642158149710170838e-10 1.055347721978587547e-09 1.371171015756765213e-09 1.855402608693303270e-09 2.374876092135771788e-09 3.164965900082182066e-09 4.001239388208271476e-09 5.258782545641761022e-09 6.570466036985982249e-09 8.519204784614337196e-09 1.052028510776076646e-08 1.345781626256394934e-08 1.642433739515266574e-08 2.072894299341653061e-08 2.499899832430714452e-08 3.112723753343913295e-08 3.709008169266082793e-08 4.556018041797299054e-08 5.363021884006268780e-08 6.498666033801632835e-08 7.555916448962286336e-08 9.031568900700540883e-08 1.037036643194762096e-07 1.222654037861692056e-07 1.386211652149870443e-07 1.611917351665795078e-07 1.804219954734846223e-07 2.069073137512969541e-07 2.285959363818908100e-07 2.585219725843239529e-07 2.818784263363259077e-07 3.143431919621485653e-07 3.381953957147304991e-07 3.718744533014001711e-07 3.947206867375495221e-07 4.279391463831558085e-07 4.480646090109314302e-07 4.789371881250671571e-07 4.945877358646962044e-07 5.212138960710746316e-07 5.308052308931374614e-07 5.514921243413132487e-07 5.538211186501091668e-07 5.672972100403577268e-07 5.617169458503623283e-07 5.672972100403409979e-07 5.538211186500723209e-07 5.514921243412365923e-07 5.308052308930058537e-07 5.212138960708207335e-07 4.945877358642718409e-07 4.789371881242636405e-07 4.480646090096039707e-07 4.279391463806794018e-07 3.947206867334991164e-07 3.718744532939538515e-07 3.381953957026729851e-07 3.143431919403000387e-07 2.818784263013022600e-07 2.585219725217697227e-07 2.285959362826267013e-07 2.069073135765384399e-07 1.804219951989827376e-07 1.611917346901920317e-07 1.386211644743380471e-07 1.222654025190602473e-07 1.037036623697033503e-07 9.031568571857217703e-08 7.555915948179960922e-08 6.498665201130780358e-08 5.363020629149343577e-08 4.556015984709863207e-08 3.709005101626378992e-08 3.112718795296754114e-08 2.499892516634195837e-08 2.072882641238122695e-08 1.642416720068461344e-08 1.345754884963561843e-08 1.051989889012503192e-08 8.518606443737636769e-09 6.569611178300118101e-09 5.257476683030847276e-09 3.999393944432101504e-09 3.162186216868963732e-09 2.370990871524210815e-09 1.849632238162700133e-09 1.363194782860308789e-09 1.043666757845519397e-09 7.482496650802917676e-10 5.505705972191063348e-10 3.676825484819578319e-10 2.353051133869815629e-10 1.098880404883813155e-10 0.000000000000000000e+00
0.000000000000000000e+00 1.134130874615222086e-10 2.433845253706048175e-10 3.814410338811406526e-10 5.736258524170411202e-10 7.832574619796113293e-10 1.098564924600404656e-09 1.443036375192340063e-09 1.970042538584321012e-09 2.540833141467394968e-09 3.410512404784834094e-09 4.340910213819649539e-09 5.743811048191238238e-09 7.223938909944684033e-09 9.428989467441412950e-09 1.172093939792647004e-08 1.509374903984076916e-08 1.854415529372452681e-08 2.356105502672401787e-08 2.860693169125185272e-08 3.585930884167430839e-08 4.302163023622364617e-08 5.320380096393585562e-08 6.306261248213845496e-08 7.693616684066960048e-08 9.008161044039122314e-08 1.084105687144021842e-07 1.253667043356779114e-07 1.488215257409746333e-07 1.699445823322925041e-07 1.989792353516486960e-07 2.243387362714412932e-07 2.590531169334554088e-07 2.883121974338221062e-07 3.283206915877151700e-07 3.606389965157383930e-07 4.049725973280444288e-07 4.389589329040618210e-07 4.860303131887810279e-07 5.197702575043733726e-07 5.674262451293367201e-07 5.986006632696566938e-07 6.442738028297030360e-07 6.703680084566426223e-07 7.113197274471932235e-07 7.299026522975029349e-07 7.635289151832022582e-07 7.725620297912272723e-07 7.967139843501675940e-07 7.948367410788851039e-07 8.080996080215745618e-07 7.948367410788631869e-07 7.967139843501124309e-07 7.725620297911270048e-07 7.635289151830051112e-07 7.299026522971706862e-07 7.113197274465591135e-07 6.703680084555889134e-07 6.442738028277240494e-07 5.986006632664023932e-07 5.674262451233135747e-07 5.197702574945678016e-07 4.860303131708945508e-07 4.389589328752334781e-07 4.049725972762118358e-07 3.606389964330377489e-07 3.283206914411467594e-07 2.883121972023307546e-07 2.590531165290351870e-07 2.243387356391890610e-07 1.989792342627847718e-07 1.699445806474181876e-07 1.488215228804000837e-07 1.253666999548492633e-07 1.084105613817496226e-07 9.008159932704254449e-08 7.693614850129926007e-08 6.306258497662168256e-08 5.320375621235851794e-08 4.302156382142677336e-08 3.585920230096343412e-08 2.860677524633742092e-08 2.356080757749575393e-08 1.854379580267838923e-08 1.509318838350905804e-08 1.172013361161517053e-08 9.427750326261647653e-09 7.222177224900267576e-09 5.741139717882219400e-09 4.337153740171423848e-09 3.404895696222113913e-09 2.533021570578819396e-09 1.958525435836338630e-09 1.427196233402647518e-09 1.075536444937541013e-09 7.519395528003266495e-10 5.287311811208118184e-10 3.210764030248534839e-10 1.580605908804384419e-10 0.000000000000000000e+00
0.000000000000000000e+00 1.591752778316340695e-10 3.239401515056712359e-10 5.352160405879533388e-10 7.642158149710172906e-10 1.098564924600404656e-09 1.465530558704413701e-09 2.023007681186624536e-09 2.632143512250714703e-09 3.560485043899073609e-09 4.564074230857698161e-09 6.080753924883611269e-09 7.699173034358454406e-09 1.011653923564870099e-08 1.265966961629395700e-08 1.641123422405468921e-08 2.029859454033307861e-08 2.596248449475774459e-08 3.173738447731611361e-08 4.005060195925321334e-08 4.838153518431013753e-08 6.023646103358038519e-08 7.189737549560236122e-08 8.831063589964867707e-08 1.041314476918345031e-07 1.261758065317707407e-07 1.469564672582157266e-07 1.756497711213951517e-07 2.020361187243683635e-07 2.381881265279021891e-07 2.705158531467707535e-07 3.145438574515917229e-07 3.526674732855797382e-07 4.044036156227911181e-07 4.475383065973006802e-07 5.060627330297044206e-07 5.526753868403686919e-07 6.162162069086763489e-07 6.640039437522277519e-07 7.299435532435645435e-07 7.759307313203677049e-07 8.409458823721990492e-07 8.817126090327732530e-07 9.420527822030141851e-07 9.740814664122446046e-07 1.025960326561012236e-06 1.046057278117678774e-06 1.086102327353187264e-06 1.091826869327756250e-06 1.117511533482653887e-06 1.107533737963588144e-06 1.117511533482621911e-06 1.091826869327685735e-06 1.086102327353040727e-06 1.046057278117427205e-06 1.025960326560527310e-06 9.740814664114335705e-07 9.420527822014805260e-07 8.817126090302373423e-07 8.409458823674747229e-07 7.759307313126345058e-07 7.299435532293646715e-07 6.640039437292169372e-07 6.162162068670296447e-07 5.526753867735553683e-07 5.060627329105100502e-07 4.475383064080038513e-07 4.044036152899006582e-07 3.526674727622565254e-07 3.145438565443733790e-07 2.705158517350934676e-07 2.381881241153359649e-07 2.020361150087492055e-07 1.756497648611090785e-07 1.469564577160493333e-07 1.261757906811814447e-07 1.041314237823264927e-07 8.831059674171753528e-08 7.189731704515111474e-08 6.023636664886194120e-08 4.838139577814346493e-08 4.005038000001091878e-08 3.173706011260987465e-08 2.596197526534484625e-08 2.029785829896156772e-08 1.641009450385652584e-08 1.265803951010925810e-08 1.011405095350190813e-08 7.695652645118776610e-09 6.075455027969889929e-09 4.556659248596719967e-09 3.549479315281779053e-09 2.616912297452067118e-09 2.000715267784880129e-09 1.435022231624809247e-09 1.054534641896161284e-09 7.046346064505452823e-10 4.504258096500084707e-10 2.105051388600006608e-10 0.000000000000000000e+00
0.000000000000000000e+00 2.086873928547753567e-10 4.474899584297291806e-10 7.021884356178696820e-10 1.055347721978587547e-09 1.443036375192340063e-09 2.023007681186624536e-09 2.661347134195988172e-09 3.631938623381918243e-09 4.691626441354225484e-09 6.295567733162277180e-09 8.026112629080852660e-09 1.061737443505543156e-08 1.337586204181062738e-08 1.745530990908217941e-08 2.173578440600103750e-08 2.798627986594542233e-08 3.444481266227667954e-08 4.375879495924799334e-08 5.322640153281795759e-08 6.671571625265758211e-08 8.018858789804349641e-08 9.916368672723031409e-08 1.177586633218332894e-07 1.436634682387866721e-07 1.685275098718346321e-07 2.028185999005482100e-07 2.349854556648343262e-07 2.789509965613164584e-07 3.191471173855053605e-07 3.736725710259757932e-07 4.220873540087848169e-07 4.873905683014696878e-07 5.434414919929434879e-07 6.188165746042584731e-07 6.809541711320141172e-07 7.645771219758172859e-07 8.301831528699032458e-07 9.190371276363946039e-07 9.844667120799846969e-07 1.074436177235061258e-06 1.135237530640931547e-06 1.221396295939838402e-06 1.272710371048784375e-06 1.349790926205775103e-06 1.386892738583941052e-06 1.449881061902348322e-06 1.468784599504982575e-06 1.513547170545436492e-06 1.511568596293243512e-06 1.535398883755050909e-06 1.511568596293203066e-06 1.513547170545334848e-06 1.468784599504798557e-06 1.449881061901986639e-06 1.386892738583330553e-06 1.349790926204611703e-06 1.272710371046850387e-06 1.221396295936211407e-06 1.135237530634962082e-06 1.074436177224028231e-06 9.844667120620076932e-07 9.190371276036446044e-07 8.301831528170750714e-07 7.645771218809521369e-07 6.809541709805234393e-07 6.188165743361015004e-07 5.434414915690390731e-07 4.873905675617730733e-07 4.220873528513253588e-07 3.736725690348759846e-07 3.191471143016596228e-07 2.789509913313466245e-07 2.349854476476921238e-07 2.028185864956840694e-07 1.685274895353459567e-07 1.436634347136069874e-07 1.177586129892530857e-07 9.916360491625351857e-08 8.018846635658342665e-08 6.671552146216171276e-08 5.322611519124001830e-08 4.375834245677774716e-08 3.444415453646697716e-08 2.798525433350080037e-08 2.173430878585243925e-08 1.745304251026065222e-08 1.337263463069064671e-08 1.061248422676143835e-08 8.019227425659996485e-09 6.285280132451147906e-09 4.677300408914676104e-09 3.610830512550010914e-09 2.632277461554125329e-09 1.980771127378447756e-09 1.385517356518057259e-09 9.729377122548694172e-10 5.912237740244995088e-10 2.907193797403381146e-10 0.000000000000000000e+00
0.000000000000000000e+00 2.850615409899738214e-10 5.808185265986142268e-10 9.589638112446865643e-10 1.371171015756765213e-09 1.970042538584321012e-09 2.632143512250714703e-09 3.631938623381918243e-09 4.733220624003371140e-09 6.400577361392232304e-09 8.218622580992973884e-09 1.094701018576767957e-08 1.388492494404959023e-08 1.824100050018344171e-08 2.286772752807836880e-08 2.964030096202951083e-08 3.672926749049402893e-08 4.697373203359400983e-08 5.753130368962084868e-08 7.259796582217056296e-08 8.786918314872979355e-08 1.093996705545820846e-07 1.308355492335040603e-07 1.607087408080898099e-07 1.898785076768169524e-07 2.300880136221788229e-07 2.685227855692490905e-07 3.209737891973754337e-07 3.699369272588420578e-07 4.361625038009202980e-07 4.963568017627034274e-07 5.771725693824718785e-07 6.484144240178306008e-07 7.435532643286075362e-07 8.244655205479363739e-07 9.322562388582555215e-07 1.020048649650811361e-06 1.137216800073436116e-06 1.227628768162840674e-06 1.349296870600922886e-06 1.436764857622564398e-06 1.556707378677716923e-06 1.634786141615241343e-06 1.745951430482189691e-06 1.807967282846735847e-06 1.903220804940345826e-06 1.943076791833106308e-06 2.016061134382037587e-06 2.029064255399102247e-06 2.075028951519963588e-06 2.058585179393823516e-06 2.075028951519905990e-06 2.029064255398975615e-06 2.016061134381775430e-06 1.943076791832656534e-06 1.903220804939479099e-06 1.807967282845285726e-06 1.745951430479451869e-06 1.634786141610711199e-06 1.556707378669288522e-06 1.436764857608756702e-06 1.349296870575603377e-06 1.227628768121775035e-06 1.137216799999209772e-06 1.020048649531625355e-06 9.322562386458989618e-07 8.244655202103782860e-07 7.435532637357235425e-07 6.484144230849114773e-07 5.771725677671232969e-07 4.963567992467235594e-07 4.361624995060636677e-07 3.699369206377444337e-07 3.209737780542117379e-07 2.685227685671161469e-07 2.300879854100597279e-07 1.898784650761447620e-07 1.607086711104129526e-07 1.308354450842622482e-07 1.093995025418669944e-07 8.786893471699147586e-08 7.259757064608662400e-08 5.753072552512977775e-08 4.697282516488404260e-08 3.672795478227240299e-08 2.963827056549608378e-08 2.286481993834875537e-08 1.823656570289671237e-08 1.387864265427039682e-08 1.093756103522688176e-08 8.205382517948117803e-09 6.380939115308516426e-09 4.706005419056685539e-09 3.592131304108153720e-09 2.577587957749903297e-09 1.891351272122070815e-09 1.264530626858335246e-09 8.072799760233292483e-10 3.775820731937087982e-10 0.000000000000000000e+00
0.000000000000000000e+00 3.669187727820487594e-10 7.861502737660135175e-10 1.235239645101946844e-09 1.855402608693302857e-09 2.540833141467394968e-09 3.560485043899073609e-09 4.691626441354225484e-09 6.400577361392232304e-09 8.282310705927383462e-09 1.111107431175807617e-08 1.419067081952009142e-08 1.876881506981673512e-08 2.368882604277268761e-08 3.090991478247736604e-08 3.856303753498944509e-08 4.964943164208406637e-08 6.122667719972981562e-08 7.778185769730642588e-08 9.479993982797309685e-08 1.188299321611610322e-07 1.431186079903557160e-07 1.769989474675037700e-07 2.106257452352870892e-07 2.569883749399023326e-07 3.020990022406733126e-07 3.636171303597803558e-07 4.221772654484706110e-07 5.012379102783269226e-07 5.746777675029323847e-07 6.729526269060343481e-07 7.617396176914197375e-07 8.796937182744793309e-07 9.828878160325620648e-07 1.119297435166781777e-06 1.234172185924096406e-06 1.385750585755723784e-06 1.507580866644353443e-06 1.668821967057007831e-06 1.790937490237929565e-06 1.954273905853407049e-06 2.068447620449640153e-06 2.224775365364038418e-06 2.321957545922187225e-06 2.461508674191356156e-06 2.532839536624709641e-06 2.646300036549406425e-06 2.684254841535593600e-06 2.763950725770224006e-06 2.763415604221286874e-06 2.804349930095613978e-06 2.763415604221216147e-06 2.763950725770046129e-06 2.684254841535270880e-06 2.646300036548772845e-06 2.532839536623639415e-06 2.461508674189320735e-06 2.321957545918799094e-06 2.224775365357693717e-06 2.068447620439189884e-06 1.954273905834117567e-06 1.790937490206474150e-06 1.668821966999780167e-06 1.507580866551958242e-06 1.385750585590023175e-06 1.234172185659245721e-06 1.119297434698556151e-06 9.828878152916919919e-07 8.796937169832741646e-07 7.617396156690177205e-07 6.729526234311536798e-07 5.746777621156243279e-07 5.012379011523028929e-07 4.221772514446286835e-07 3.636171069707664682e-07 3.020989667197492466e-07 2.569883164446698571e-07 2.106256573185196685e-07 1.769988047113034739e-07 1.431183956677725605e-07 1.188295922065976108e-07 9.479943951484130783e-08 7.778106778109462687e-08 6.122552695482153889e-08 4.964764080789897954e-08 3.856045753455135514e-08 3.090595363954566944e-08 2.368318050865786523e-08 1.876026737133589199e-08 1.417861999588071540e-08 1.109308105544599900e-08 8.257219543548314247e-09 6.363631524224066893e-09 4.640672513876896762e-09 3.486494900247584601e-09 2.439921427195616547e-09 1.710896722130583605e-09 1.040363137014326157e-09 5.109534537903469579e-10 0.000000000000000000e+00
0.000000000000000000e+00 4.927456045873084713e-10 1.005200098907566381e-09 1.658527129244085231e-09 2.374876092135772201e-09 3.410512404784834094e-09 4.564074230857698161e-09 6.295567733162278007e-09 8.218622580992977193e-09 1.111107431175807617e-08 1.429276164170926497e-08 1.903445022333871055e-08 2.418785494631910966e-08 3.177310210703250807e-08 3.990885671176466811e-08 5.172655199618198578e-08 6.422487277988612422e-08 8.214034973322263757e-08 1.008065854803796622e-07 1.272165241536319118e-07 1.542978692800188462e-07 1.921299431223628483e-07 2.302646893938972810e-07 2.828881451483007601e-07 3.349563805408207700e-07 4.059698911714259193e-07 4.748191736636845434e-07 5.676916931810857148e-07 6.557260024101800578e-07 7.732877143272494624e-07 8.819344811031593079e-07 1.025748628151265456e-06 1.154855348708158261e-06 1.324544135413134489e-06 1.471797081848000189e-06 1.664437374700399842e-06 1.824929603074355318e-06 2.034663799126265348e-06 2.200754238612497125e-06 2.418763664147304050e-06 2.580350314387074014e-06 2.795301205773089274e-06 2.940572193577537226e-06 3.139565144471451083e-06 3.256195982777497773e-06 3.426139978427225286e-06 3.502792647518152773e-06 3.632010127073469639e-06 3.659890352381582458e-06 3.739674619153106183e-06 3.713851984294853039e-06 3.739674619153007081e-06 3.659890352381365194e-06 3.632010127073019018e-06 3.502792647517378161e-06 3.426139978425734084e-06 3.256195982774999450e-06 3.139565144466739885e-06 2.940572193569734782e-06 2.795301205758592305e-06 2.580350314363304999e-06 2.418763664103777144e-06 2.200754238541837637e-06 2.034663798998717009e-06 1.824929602869364450e-06 1.664437374335629126e-06 1.471797081267625919e-06 1.324544134395031379e-06 1.154855347104605884e-06 1.025748625378038717e-06 8.819344767794608880e-07 7.732877069550839123e-07 6.557259910334254804e-07 5.676916740555455164e-07 4.748191444514888147e-07 4.059698427505623375e-07 3.349563073455127070e-07 2.828880255180538173e-07 2.302645104305969546e-07 1.921296547016128778e-07 1.542974423146186196e-07 1.272158456157827743e-07 1.008055915565317167e-07 8.213879209683107777e-08 6.422261528821947591e-08 5.172306315008506273e-08 3.990385418502057407e-08 3.176547785888195557e-08 2.417704019031353796e-08 1.901819535585729953e-08 1.426995414858865204e-08 1.107726719841825167e-08 8.171704918951806877e-09 6.226982179125962635e-09 4.469939079628861854e-09 3.274802187819642004e-09 2.190681913952099143e-09 1.396650962893986154e-09 6.537588233336181473e-10 0.000000000000000000e+00
0.000000000000000000e+00 6.258713375863483947e-10 1.339933382651448361e-09 2.108206848650855942e-09 3.164965900082182066e-09 4.340910213819649539e-09 6.080753924883611269e-09 8.026112629080852660e-09 1.094701018576768122e-08 1.419067081952009307e-08 1.903445022333871055e-08 2.435538849913309004e-08 3.221028987224501334e-08 4.073224310167186448e-08 5.314819326897380280e-08 6.643949562604390339e-08 8.554486690402827856e-08 1.057086970457952696e-07 1.343073942966647527e-07 1.640379184380894338e-07 2.056546024953641208e-07 2.482247611564130453e-07 3.070562573498876840e-07 3.661961361070877245e-07 4.469223511535248667e-07 5.265472482024724624e-07 6.339599481854514750e-07 7.377189290929039472e-07 8.761461139170840035e-07 1.006788633627372735e-06 1.179328647268919542e-06 1.337929414124152486e-06 1.545560840226640930e-06 1.730697127864271193e-06 1.971390233283425189e-06 2.178420456317828210e-06 2.446428886596285737e-06 2.667059539302841519e-06 2.952597513607279941e-06 3.174927893598047343e-06 3.464418650773645505e-06 3.673603192632577762e-06 3.950607009216980446e-06 4.130169427017698777e-06 4.376968240171144455e-06 4.510654617911251472e-06 4.710310030186031086e-06 4.784214187505221038e-06 4.922769479348884021e-06 4.927350813470900150e-06 4.995764857831237885e-06 4.927350813470779871e-06 4.922769479348580783e-06 4.784214187504671314e-06 4.710310030184955355e-06 4.510654617909435433e-06 4.376968240167691102e-06 4.130169427011948270e-06 3.950607009206225669e-06 3.673603192614849363e-06 3.464418650740966127e-06 3.174927893544709678e-06 2.952597513510367513e-06 2.667059539146234868e-06 2.446428886315787811e-06 2.178420455869077778e-06 1.971390232491068219e-06 1.730697126609345506e-06 1.545560838042145289e-06 1.337929410699271538e-06 1.179328641391106776e-06 1.006788624505533684e-06 8.761460984820147931e-07 7.377189053834053502e-07 6.339599086285253707e-07 5.265471880633175429e-07 4.469222522188012075e-07 3.661959872472620312e-07 3.070560158725086757e-07 2.482244015965907275e-07 2.056540273299385650e-07 1.640370709683099244e-07 1.343060574476261614e-07 1.057067480090508322e-07 8.554183491860337264e-08 6.643512202761531705e-08 5.314148352971772690e-08 4.072266768395472938e-08 3.219580239015198711e-08 2.433493585838312421e-08 1.900393197677441694e-08 1.414805388768890981e-08 1.088429519631508393e-08 7.939492452880609961e-09 5.955038600510583966e-09 4.169191816721349281e-09 2.919176301839872922e-09 1.776216791856656996e-09 8.712896978575200172e-10 0.000000000000000000e+00
0.000000000000000000e+00 8.284855011566277419e-10 1.692150232046496105e-09 2.790241916274155126e-09 4.001239388208271476e-09 5.743811048191238238e-09 7.699173034358454406e-09 1.061737443505543322e-08 1.388492494404959519e-08 1.876881506981673843e-08 2.418785494631910966e-08 3.221028987224501334e-08 4.100950093518496381e-08 5.387074760027812332e-08 6.779935568248163122e-08 8.788352564415291817e-08 1.093424480214202435e-07 1.398652174053462753e-07 1.720128823428437474e-07 2.171257961168587922e-07 2.639198575396595213e-07 3.287219816264119740e-07 3.948461329229033987e-07 4.852429142019476417e-07 5.758620436506987790e-07 6.982096817473173807e-07 8.185026286533027291e-07 9.789906050286534085e-07 1.133433702522193576e-06 1.337193864284535373e-06 1.528613978748578025e-06 1.778603434505198793e-06 2.007084846743875028e-06 2.302866675791423046e-06 2.564672475154359453e-06 2.901298465731163826e-06 3.188035588891126241e-06 3.555295494422346760e-06 3.853587439539025198e-06 4.235901362066867358e-06 4.527807470600635587e-06 4.904977680075983065e-06 5.169295803275327128e-06 5.518193000079195859e-06 5.732607567333997791e-06 6.029661931966707822e-06 6.173484665019590195e-06 6.397631110014079319e-06 6.454685472879430299e-06 6.590242603224716659e-06 6.551333908809214656e-06 6.590242603224551487e-06 6.454685472879064381e-06 6.397631110013322919e-06 6.173484665018287458e-06 6.029661931964212463e-06 5.732607567329815989e-06 5.518193000071318452e-06 5.169295803262270115e-06 4.904977680051757922e-06 4.527807470560881790e-06 4.235901361994161438e-06 3.853587439420894595e-06 3.555295494209375572e-06 3.188035588548538684e-06 2.901298465122298333e-06 2.564672474184721451e-06 2.302866674092488830e-06 2.007084844065445887e-06 1.778603429878370681e-06 1.528613971527895318e-06 1.337193851986465706e-06 1.133433683524607445e-06 9.789905731256519057e-07 8.185025798741529457e-07 6.982096009754998219e-07 5.758619214207555728e-07 4.852427146238432275e-07 3.948458340278873363e-07 3.287215003664389829e-07 2.639191442836416501e-07 2.171246635932360703e-07 1.720112214424839221e-07 1.398626166481999268e-07 1.093386740726013173e-07 8.787769765499827018e-08 6.779098843698747137e-08 5.385800429471187204e-08 4.099140090697831071e-08 3.218310270189800467e-08 2.414965540190116266e-08 1.871222580279182878e-08 1.380627717807120410e-08 1.050246475179854419e-08 7.541220973678287846e-09 5.516201788589241345e-09 3.691832677967363296e-09 2.350512938999223799e-09 1.101069472633096546e-09 0.000000000000000000e+00
0.000000000000000000e+00 1.039763023122309592e-09 2.224428093364402780e-09 3.504522323082628147e-09 5.258782545641761022e-09 7.223938909944683206e-09 1.011653923564870099e-08 1.337586204181062904e-08 1.824100050018344171e-08 2.368882604277268761e-08 3.177310210703250807e-08 4.073224310167187772e-08 5.387074760027812332e-08 6.825800849236740519e-08 8.907442551614418565e-08 1.115781519935235104e-07 1.436907626045262726e-07 1.779361454432627531e-07 2.261345200307312144e-07 2.767951727281137036e-07 3.471327877884370183e-07 4.199292984865912288e-07 5.196591923734559428e-07 6.211717307954208196e-07 7.584419893712213702e-07 8.956616839828057427e-07 1.078893375825664379e-06 1.258454363689483383e-06 1.495355178366646836e-06 1.722433249932203201e-06 2.018661431826771285e-06 2.295598798751681783e-06 2.653183066853063024e-06 2.977996083759617443e-06 3.393726225327144830e-06 3.758756079312821483e-06 4.222860873802899665e-06 4.613906267471837968e-06 5.109394450881822850e-06 5.505682777398369084e-06 6.008700322570009831e-06 6.383976334156411526e-06 6.865402492605179299e-06 7.190227485241425420e-06 7.618494471532781972e-06 7.863576207179991286e-06 8.208395404777447390e-06 8.348472130710260104e-06 8.584864339652029111e-06 8.602437731655970872e-06 8.714294618634240805e-06 8.602437731655770972e-06 8.584864339651527667e-06 8.348472130709352085e-06 8.208395404775672009e-06 7.863576207176991095e-06 7.618494471527086522e-06 7.190227485231930181e-06 6.865402492587444970e-06 6.383976334127150773e-06 6.008700322516141924e-06 5.505682777310373372e-06 5.109394450722137658e-06 4.613906267213567458e-06 4.222860873340875380e-06 3.758756078572993685e-06 3.393726224022373584e-06 2.977996081691225243e-06 2.653183063256631434e-06 2.295598793107779282e-06 2.018661422151273171e-06 1.722433234901941942e-06 1.495355152960739558e-06 1.258454324624400513e-06 1.078893310715304327e-06 8.956615848905528018e-07 7.584418265120604411e-07 6.211714854876882024e-07 5.196587948049822103e-07 4.199287058433147800e-07 3.471318405958469841e-07 2.767937754787003670e-07 2.261323177234587164e-07 1.779329307587254943e-07 1.436857655416029530e-07 1.115709347859729617e-07 8.906336106264862881e-08 6.824219798871757422e-08 5.384684193786891070e-08 4.069844881020531996e-08 3.172270558428184554e-08 2.361835135854071473e-08 1.813734368364460865e-08 1.323248456133808234e-08 9.908542929931205677e-09 6.939396766522453842e-09 4.851655195209490493e-09 2.953736321935541342e-09 1.447160322654993520e-09 0.000000000000000000e+00
0.000000000000000000e+00 1.357626217151222550e-09 2.776176618856014652e-09 4.575226473020846558e-09 6.570466036985982249e-09 9.428989467441412950e-09 1.265966961629395865e-08 1.745530990908217941e-08 2.286772752807836549e-08 3.090991478247736604e-08 3.990885671176466811e-08 5.314819326897380941e-08 6.779935568248164445e-08 8.907442551614419888e-08 1.123328861738958384e-07 1.456408917596790237e-07 1.815846211355160826e-07 2.323426776921635584e-07 2.863694413098004739e-07 3.616089327311266632e-07 4.405311262480481951e-07 5.489415791282672591e-07 6.608911106172804885e-07 8.126090826717399822e-07 9.666510873194156109e-07 1.172683329849639686e-06 1.378043664633220841e-06 1.649234043545225745e-06 1.914082292458514340e-06 2.259589417768158909e-06 2.589394677041409958e-06 3.014746960793135185e-06 3.410337862401574195e-06 3.915268342840236520e-06 4.370867725136819189e-06 4.947279484597668732e-06 5.448916695969843976e-06 6.079450311574931074e-06 6.604233779284754737e-06 7.261948261238092841e-06 7.778655732293699029e-06 8.428244067142928253e-06 8.899519360248491528e-06 9.500234810977960492e-06 9.886366587231355124e-06 1.039646050987626502e-05 1.066031452149231575e-05 1.104236445674381199e-05 1.115465541929367423e-05 1.138082357265998765e-05 1.132468287637274140e-05 1.138082357265971829e-05 1.115465541929307792e-05 1.104236445674258210e-05 1.066031452149019647e-05 1.039646050987220095e-05 9.886366587224538203e-06 9.500234810965138107e-06 8.899519360227219143e-06 8.428244067103512422e-06 7.778655732228965383e-06 7.261948261119841959e-06 6.604233779092465553e-06 6.079450311228680946e-06 5.448916695412378559e-06 4.947279483608058964e-06 4.370867723559420225e-06 3.915268340079528294e-06 3.410337858045197350e-06 3.014746953275905820e-06 2.589394665298744877e-06 2.259589397789203793e-06 1.914082261565407562e-06 1.649233991717650759e-06 1.378043585309128067e-06 1.172683198624690871e-06 9.666508885311103395e-07 8.126087583828535616e-07 6.608906244221605569e-07 5.489407969625462379e-07 4.405299657234224846e-07 3.616070915122322719e-07 2.863667379125577334e-07 2.323384477104064328e-07 1.815784755636858571e-07 1.456314079738103367e-07 1.123192530971019308e-07 8.905367563020227699e-08 6.776984471869769560e-08 5.310389188849131094e-08 3.984652549457489163e-08 3.081762388042251687e-08 2.273927856019260350e-08 1.726772060861596929e-08 1.240142989239795645e-08 9.057003709087691579e-09 6.064010754220378740e-09 3.855664466020506202e-09 1.807373638608079626e-09 0.000000000000000000e+00
0.000000000000000000e+00 1.683952053234831226e-09 3.600196597666383066e-09 5.679471966981394110e-09 8.519204784614337196e-09 1.172093939792647004e-08 1.641123422405468921e-08 2.173578440600103750e-08 2.964030096202950752e-08 3.856303753498944509e-08 5.172655199618199240e-08 6.643949562604391662e-08 8.788352564415291817e-08 1.115781519935235104e-07 1.456408917596790502e-07 1.828169161708737579e-07 2.355093694902937288e-07 2.922708748223908033e-07 3.715923415771499093e-07 4.558630992289708717e-07 5.719853607008027991e-07 6.935433875100735590e-07 8.587400624995837235e-07 1.028945061143764880e-06 1.257121085768633631e-06 1.488199307710607623e-06 1.793879668745762780e-06 2.097653681576856388e-06 2.494336235431039219e-06 2.880356260348864208e-06 3.378233116945193018e-06 3.851389752667529910e-06 4.454597159259450483e-06 5.012466100500985397e-06 5.716217403303957064e-06 6.346577714125947641e-06 7.134727069691371478e-06 7.813854208658644102e-06 8.657566548818269520e-06 9.349960305134572097e-06 1.020815134621435551e-05 1.086824852384237969e-05 1.169024795888703663e-05 1.226635244351387663e-05 1.299682329019729114e-05 1.343698863282567639e-05 1.402257333064416414e-05 1.428160488095730955e-05 1.467821375540743508e-05 1.472449663511990851e-05 1.490380220733983342e-05 1.472449663511959341e-05 1.467821375540663378e-05 1.428160488095585095e-05 1.402257333064131134e-05 1.343698863282084492e-05 1.299682329018813640e-05 1.226635244349860293e-05 1.169024795885854753e-05 1.086824852379534395e-05 1.020815134612787006e-05 9.349960304993175193e-06 8.657566548561987843e-06 7.813854208243789387e-06 7.134727068950085512e-06 6.346577712937917017e-06 5.716217401211045377e-06 5.012466097180224915e-06 4.454597153491620286e-06 3.851389743607679058e-06 3.378233101429595009e-06 2.880356236223407530e-06 2.494336194691543312e-06 2.097653618872552291e-06 1.793879564333947478e-06 1.488199148643041452e-06 1.257120824573608324e-06 1.028944667301771941e-06 8.587394247441021392e-07 6.935424357873778929e-07 5.719838408235972632e-07 4.558608546401096089e-07 3.715888063555350559e-07 2.922657084129523888e-07 2.355013441213311329e-07 1.828053110011170955e-07 1.456231115402109177e-07 1.115527125992831760e-07 8.784508300778762103e-08 6.638507883130993812e-08 5.164544292177217537e-08 3.844945692644476974e-08 2.947331586940799400e-08 2.150447694196352430e-08 1.607580235661589329e-08 1.126136830700329388e-08 7.861835523225489587e-09 4.788734133576372308e-09 2.343456150330604347e-09 0.000000000000000000e+00
0.000000000000000000e+00 2.169180508853334262e-09 4.440798024466559081e-09 7.315097984436977570e-09 1.052028510776076646e-08 1.509374903984076916e-08 2.029859454033307861e-08 2.798627986594541241e-08 3.672926749049402231e-08 4.964943164208405975e-08 6.422487277988612422e-08 8.554486690402829179e-08 1.093424480214202435e-07 1.436907626045262726e-07 1.815846211355161356e-07 2.355093694902937288e-07 2.942647603186344697e-07 3.766868331030984347e-07 4.653180343554449378e-07 5.878861147005335606e-07 7.178581933047223331e-07 8.950675983870610250e-07 1.080193908103130895e-06 1.329091990636534107e-06 1.584951224129826389e-06 1.924234843838361035e-06 2.266933751424392291e-06 2.715269512075408819e-06 3.159430254207612047e-06 3.732916202923134607e-06 4.288887704567657766e-06 4.997738667649286540e-06 5.668224051630311415e-06 6.512996241875579192e-06 7.289535341728904487e-06 8.257475253201942866e-06 9.117472821337125821e-06 1.017981264227955586e-05 1.108497761488103377e-05 1.219610850320842181e-05 1.309316800555315417e-05 1.419250349567193571e-05 1.501679223077334863e-05 1.603372419012588708e-05 1.671570198353309543e-05 1.757737489664365783e-05 1.805137441397183215e-05 1.869220349134444469e-05 1.890595634271294016e-05 1.927713921332839753e-05 1.920014382718725023e-05 1.927713921332797062e-05 1.890595634271199148e-05 1.869220349134249312e-05 1.805137441396846435e-05 1.757737489663721022e-05 1.671570198352227034e-05 1.603372419010555829e-05 1.501679223073959267e-05 1.419250349560946025e-05 1.309316800545046667e-05 1.219610850302106998e-05 1.108497761457612393e-05 1.017981264173113929e-05 9.117472820453429900e-06 8.257475251634918361e-06 7.289535339228971446e-06 6.512996237504887490e-06 5.668224044727238535e-06 4.997738655749608655e-06 4.288887685962042061e-06 3.732916171298295124e-06 3.159430205260109807e-06 2.715269430035242008e-06 2.266933625735043073e-06 1.924234636095654585e-06 1.584950909106162004e-06 1.329091477159974887e-06 1.080193137450945131e-06 8.950663595791724969e-07 7.178563532268106502e-07 5.878831974962285850e-07 4.653137462389207953e-07 3.766801281130702129e-07 2.942550073423794878e-07 2.354943282324243084e-07 1.815629723824723807e-07 1.436578313509432175e-07 1.092955520611581388e-07 8.547450293408666194e-08 6.412573875536201623e-08 4.950271270614871411e-08 3.652477926660607210e-08 2.768775070446530403e-08 1.988702766144100410e-08 1.450107290115967945e-08 9.712117921520333563e-09 6.167111300328885168e-09 2.892674757219185259e-09 0.000000000000000000e+00
0.000000000000000000e+00 2.659111412008164371e-09 5.681630136226667319e-09 8.974586874870127226e-09 1.345781626256394769e-08 1.854415529372453012e-08 2.596248449475774459e-08 3.444481266227667954e-08 4.697373203359400983e-08 6.122667719972981562e-08 8.214034973322263757e-08 1.057086970457952960e-07 1.398652174053463018e-07 1.779361454432627795e-07 2.323426776921635849e-07 2.922708748223908562e-07 3.766868331030984347e-07 4.685132481426308002e-07 5.960027153132215526e-07 7.328584198143741574e-07 9.201460023736988596e-07 1.118377347360390335e-06 1.385803493440874296e-06 1.664605202133802553e-06 2.035434034695926112e-06 2.415752322460540994e-06 2.914581044440055499e-06 3.417074686128495470e-06 4.067156644667886809e-06 4.709106769083697693e-06 5.528555268756445992e-06 6.319813130969920508e-06 7.316910039806131295e-06 8.255263284741569491e-06 9.423435634035470080e-06 1.049011892870868091e-05 1.180350548745486076e-05 1.295989681309455808e-05 1.437069602889263794e-05 1.555740057615775468e-05 1.699623169658590264e-05 1.813562367310251328e-05 1.951581649017751681e-05 2.051858981231981618e-05 2.174459529140313697e-05 2.251998387750132346e-05 2.349906335641926234e-05 2.396731279148281172e-05 2.462258634519725816e-05 2.472732930723849323e-05 2.500953125826168034e-05 2.472732930723799518e-05 2.462258634519599778e-05 2.396731279148052134e-05 2.349906335641479001e-05 2.251998387749375098e-05 2.174459529138880517e-05 2.051858981229589258e-05 1.951581649013294254e-05 1.813562367302885869e-05 1.699623169645063148e-05 1.555740057593642497e-05 1.437069602849191512e-05 1.295989681244536662e-05 1.180350548629608581e-05 1.049011892685000094e-05 9.423435630764488030e-06 8.255263279547129778e-06 7.316910030792888431e-06 6.319813116799730998e-06 5.528555244512249694e-06 4.709106731351351284e-06 4.067156581009349275e-06 3.417074588055102463e-06 2.914580881275796478e-06 2.415752073640901039e-06 2.035433626461980485e-06 1.664604585950850731e-06 1.385802496421374416e-06 1.118375857929901932e-06 9.201436255238093569e-07 7.328549057594936866e-07 5.959971844284150163e-07 4.685051559780402032e-07 3.766742707446143044e-07 2.922526871782255716e-07 2.323148281670416313e-07 1.778962495100150516e-07 1.398049589906073943e-07 1.056232882160205775e-07 8.201310185903704890e-08 6.104824367059341660e-08 4.671149643497118453e-08 3.408104620776914245e-08 2.543511946180881551e-08 1.782053831488912327e-08 1.242297464884977475e-08 7.570171202002075796e-09 3.700392877997712843e-09 0.000000000000000000e+00
0.000000000000000000e+00 3.379358742043275879e-09 6.925995966138267922e-09 1.140422797810045347e-08 1.642433739515266574e-08 2.356105502672402118e-08 3.173738447731611361e-08 4.375879495924799334e-08 5.753130368962084868e-08 7.778185769730643911e-08 1.008065854803796622e-07 1.343073942966647527e-07 1.720128823428438003e-07 2.261345200307312144e-07 2.863694413098004739e-07 3.715923415771500152e-07 4.653180343554450437e-07 5.960027153132215526e-07 7.379285573922649788e-07 9.329507923463724324e-07 1.141941578775084354e-06 1.424970816173958256e-06 1.723983325450204047e-06 2.123111278002767774e-06 2.538361137773884104e-06 3.084746830137984764e-06 3.643795451709301440e-06 4.369017364402139800e-06 5.097537542559715905e-06 6.029470080896250145e-06 6.946631520619949027e-06 8.103920328796301260e-06 9.216650256968045331e-06 1.060225083121596392e-05 1.189905174871912252e-05 1.349377334234287592e-05 1.493924687196104054e-05 1.669670116761934821e-05 1.822829710638312477e-05 2.007291983819114049e-05 2.160151758400972143e-05 2.343121462405737708e-05 2.484676825406177591e-05 2.654108418026730209e-05 2.772363372058643936e-05 2.915714578324864786e-05 2.999212066869274713e-05 3.105125351843611404e-05 3.144652317704798618e-05 3.204662656010371128e-05 3.194772649342985841e-05 3.204662656010305398e-05 3.144652317704651573e-05 3.105125351843309860e-05 2.999212066868753280e-05 2.915714578323867998e-05 2.772363372056969522e-05 2.654108418023588733e-05 2.484676825400959190e-05 2.343121462396091019e-05 2.160151758385104505e-05 2.007291983790194311e-05 1.822829710591210330e-05 1.669670116677304033e-05 1.493924687059623668e-05 1.349377333992518131e-05 1.189905174485887658e-05 1.060225082447361046e-05 9.216650246310039820e-06 8.103920310441053247e-06 6.946631491895377884e-06 6.029470032115680311e-06 5.097537466990146857e-06 4.369017237849783017e-06 3.643795257641113525e-06 3.084746509637983019e-06 2.538360651285019181e-06 2.123110485653362116e-06 1.723982135035195303e-06 1.424968903982508534e-06 1.141938735459474753e-06 9.329462876521916298e-07 7.379219284326378392e-07 5.959923565006762005e-07 4.653029492054266866e-07 3.715690898896072737e-07 2.863359350706769913e-07 2.260835769453180962e-07 1.719402452549652602e-07 1.341984547650231122e-07 1.006529012573724363e-07 7.755448688697188436e-08 5.721397043508977830e-08 4.329565970849524921e-08 3.109795926037771799e-08 2.264044746289653068e-08 1.516709670195711477e-08 9.618570665040244169e-09 4.514084929958809743e-09 0.000000000000000000e+00
0.000000000000000000e+00 4.093762870532540844e-09 8.742311743654901747e-09 1.382657295673692190e-08 2.072894299341653061e-08 2.860693169125185272e-08 4.005060195925321996e-08 5.322640153281795759e-08 7.259796582217057619e-08 9.479993982797312332e-08 1.272165241536319118e-07 1.640379184380894338e-07 2.171257961168587922e-07 2.767951727281137036e-07 3.616089327311266632e-07 4.558630992289708717e-07 5.878861147005335606e-07 7.328584198143741574e-07 9.329507923463724324e-07 1.149907750239437946e-06 1.444974416835043917e-06 1.760640182217744212e-06 2.183691670377087220e-06 2.629809915054483142e-06 3.219005845198405543e-06 3.830731888715144059e-06 4.626970629105932473e-06 5.439705214312662995e-06 6.482399973811405662e-06 7.526817903536784174e-06 8.847727788712442389e-06 1.014306020987206394e-05 1.175845362014711951e-05 1.330456289252986244e-05 1.520656484234322152e-05 1.697595923731551047e-05 1.912458618476005250e-05 2.105612983038400226e-05 2.337406808826520668e-05 2.537053399189055072e-05 2.774291661523265939e-05 2.967443948708193752e-05 3.195545440227764772e-05 3.367013815397591785e-05 3.569709918391862001e-05 3.703847736342327220e-05 3.865211270067037190e-05 3.948112630914003075e-05 4.054875014703705614e-05 4.076602726568299989e-05 4.120272224873301178e-05 4.076602726568224095e-05 4.054875014703513845e-05 3.948112630913653420e-05 3.865211270066355498e-05 3.703847736341171868e-05 3.569709918389677334e-05 3.367013815393940735e-05 3.195545440220970212e-05 2.967443948696958029e-05 2.774291661502653223e-05 2.537053399155302503e-05 2.337406808765473648e-05 2.105612982939424426e-05 1.912458618299514416e-05 1.697595923448233095e-05 1.520656483736205963e-05 1.330456288461307408e-05 1.175845360642281916e-05 1.014306018827698944e-05 8.847727751797475999e-06 7.526817846033674878e-06 6.482399876879346353e-06 5.439705064841074426e-06 4.626970380630059146e-06 3.830731509439215666e-06 3.219005223398182148e-06 2.629808975593592063e-06 2.183690151354549681e-06 1.760637910653206408e-06 1.444970794241111816e-06 1.149902388706193576e-06 9.329423587871888176e-07 7.328460670760066235e-07 5.878669487807329016e-07 4.558353188344302556e-07 3.615664154639926244e-07 2.767341906025546443e-07 2.170337290045636872e-07 1.639072590210808498e-07 1.270219296788249802e-07 9.452670609753773870e-08 7.219652395592992300e-08 5.266875310560279112e-08 3.924233341033473370e-08 2.749624583891863849e-08 1.914076696345231932e-08 1.166787208728529555e-08 5.697125220940154830e-09 0.000000000000000000e+00
0.000000000000000000e+00 5.132689286169678059e-09 1.053073547862707095e-08 1.733392603588602763e-08 2.499899832430714452e-08 3.585930884167430839e-08 4.838153518431015076e-08 6.671571625265759535e-08 8.786918314872982002e-08 1.188299321611610322e-07 1.542978692800188462e-07 2.056546024953641737e-07 2.639198575396595213e-07 3.471327877884370183e-07 4.405311262480481951e-07 5.719853607008027991e-07 7.178581933047223331e-07 9.201460023736990714e-07 1.141941578775084354e-06 1.444974416835043493e-06 1.773034610420083432e-06 2.214639598263052231e-06 2.686286047514040058e-06 3.311815639397155407e-06 3.970242052191653261e-06 4.830638669185178712e-06 5.722070544710790775e-06 6.869835140098591940e-06 8.038493565701404736e-06 9.521173684150468879e-06 1.100183958778804640e-05 1.285303746947738934e-05 1.466150230909276700e-05 1.689003154537211814e-05 1.901243470030025831e-05 2.159107744332667124e-05 2.397397449872557939e-05 2.683015338010653395e-05 2.937391752036564815e-05 3.238521414708738091e-05 3.494371302969610549e-05 3.794116392499665222e-05 4.033020029942944914e-05 4.311133319700969100e-05 4.512682913139305418e-05 4.747834642023231845e-05 4.892276706763527757e-05 5.064996370718645582e-05 5.136260986824835086e-05 5.231988829195493082e-05 5.220449793623771706e-05 5.231988829195393471e-05 5.136260986824612825e-05 5.064996370718190217e-05 4.892276706762741710e-05 4.747834642021732257e-05 4.512682913136783293e-05 4.311133319696241979e-05 4.033020029935087159e-05 3.794116392485153853e-05 3.494371302945722865e-05 3.238521414665246676e-05 2.937391751965675950e-05 2.683015337883407024e-05 2.397397449667196495e-05 2.159107743969219855e-05 1.901243469449263111e-05 1.689003153523764336e-05 1.466150229305953106e-05 1.285303744188890622e-05 1.100183954457757201e-05 9.521173610830582068e-06 8.038493452016442345e-06 6.869834949866578550e-06 5.722070252724072463e-06 4.830638187334115214e-06 3.970241320095165507e-06 3.311814447859066948e-06 2.686284255602264745e-06 2.214636721750956171e-06 1.773030328834830499e-06 1.444967637556369944e-06 1.141931591953827241e-06 9.201304049123950430e-07 7.178354539647999588e-07 5.719503283223586192e-07 4.404805848420633902e-07 3.470559773323788555e-07 2.638102036469963491e-07 2.054902058461127501e-07 1.540656526487648545e-07 1.184864762821976812e-07 8.738918821315288607e-08 6.601533627748471169e-08 4.741318793632819205e-08 3.446533135907238146e-08 2.309244737013252600e-08 1.462619404724482142e-08 6.867593413065106957e-09 0.000000000000000000e+00
0.000000000000000000e+00 6.143636295092507156e-09 1.311362932291256064e-08 2.076555358448695431e-08 3.112723753343913295e-08 4.302163023622364617e-08 6.023646103358038519e-08 8.018858789804348318e-08 1.093996705545820978e-07 1.431186079903557160e-07 1.921299431223628483e-07 2.482247611564130453e-07 3.287219816264119740e-07 4.199292984865912288e-07 5.489415791282672591e-07 6.935433875100735590e-07 8.950675983870611309e-07 1.118377347360390547e-06 1.424970816173958468e-06 1.760640182217744212e-06 2.214639598263051807e-06 2.705385260166134784e-06 3.359241679560677847e-06 4.056433567928613373e-06 4.971501809928652049e-06 5.932935467072985859e-06 7.175977880722789948e-06 8.461139899832686087e-06 1.009787773523241709e-05 1.176018742585147827e-05 1.384554486521418610e-05 1.592149866460996300e-05 1.848680466017653875e-05 2.098270892937868171e-05 2.402106048567665057e-05 2.689907603267810321e-05 3.035121970193541770e-05 3.351758163605890077e-05 3.726177020580076358e-05 4.056093799676063820e-05 4.441082406864085044e-05 4.762945718183924179e-05 5.134365469686308104e-05 5.422718577106493435e-05 5.753223723345566920e-05 5.981417747392474374e-05 6.243931924626843497e-05 6.387963078912910360e-05 6.559769895152826283e-05 6.602274785128414041e-05 6.668830095294059693e-05 6.602274785128298845e-05 6.559769895152538970e-05 6.387963078912389943e-05 6.243931924625828413e-05 5.981417747390755236e-05 5.753223723342320412e-05 5.422718577101066326e-05 5.134365469676216892e-05 4.762945718167227465e-05 4.441082406833482082e-05 4.056093799625917437e-05 3.726177020489468227e-05 3.351758163458877683e-05 3.035121969931636133e-05 2.689907602847057885e-05 2.402106047828575616e-05 2.098270891762277581e-05 1.848680463981424617e-05 1.592149863254400951e-05 1.384554481044481042e-05 1.176018734046436368e-05 1.009787759140837411e-05 8.461139677858720321e-06 7.175977511992562356e-06 5.932934903728808813e-06 4.971500886996955026e-06 4.056432172180078415e-06 3.359239424215816191e-06 2.705381884180387420e-06 2.214634217588336667e-06 1.760632210512866253e-06 1.424958283686580861e-06 1.118358971208337166e-06 8.950391007239979877e-07 6.935020347589439321e-07 5.488783167818165534e-07 4.198384553338268944e-07 3.285848822008859032e-07 2.480299531626203399e-07 1.918398966693158752e-07 1.427108206292037296e-07 1.088006732698413648e-07 7.935537701406605670e-08 5.902896121277184691e-08 4.135995014180551634e-08 2.875133474840752562e-08 1.753123563698462057e-08 8.550971676561568527e-09 0.000000000000000000e+00
0.000000000000000000e+00 7.599025265660667780e-09 1.560700756840704865e-08 2.568273159978500871e-08 3.709008169266082793e-08 5.320380096393584901e-08 7.189737549560234798e-08 9.916368672723028762e-08 1.308355492335040338e-07 1.769989474675037700e-07 2.302646893938972810e-07 3.070562573498876840e-07 3.948461329229033987e-07 5.196591923734559428e-07 6.608911106172804885e-07 8.587400624995837235e-07 1.080193908103131107e-06 1.385803493440874720e-06 1.723983325450204471e-06 2.183691670377087644e-06 2.686286047514040058e-06 3.359241679560677847e-06 4.085587774697906249e-06 5.043505683944966519e-06 6.063267842822668955e-06 7.387836819761104486e-06 8.776991248269349285e-06 1.055397840218740380e-05 1.238724788076361270e-05 1.469653534132868182e-05 1.703575403113305979e-05 1.993708105943288391e-05 2.281569137627690184e-05 2.633084058545650302e-05 2.973587137453456239e-05 3.382940962558037397e-05 3.768376211944178555e-05 4.224602616258534455e-05 4.639539299355319889e-05 5.123275421638573635e-05 5.544245448762803556e-05 6.028032417033455656e-05 6.424700682564418600e-05 6.874979031601289811e-05 7.213066670692681046e-05 7.593946948801539199e-05 7.839735100878159903e-05 8.118101751260763685e-05 8.243785661290754362e-05 8.394739767108941873e-05 8.383431637627155935e-05 8.394739767108791439e-05 8.243785661290429102e-05 8.118101751260096901e-05 7.839735100877007938e-05 7.593946948799340979e-05 7.213066670688979851e-05 6.874979031594359049e-05 6.424700682552889465e-05 6.028032417012187675e-05 5.544245448727770951e-05 5.123275421574851685e-05 4.639539299251382171e-05 4.224602616072134351e-05 3.768376211643130171e-05 3.382940962025709038e-05 2.973587136602194226e-05 2.633084057061416152e-05 2.281569135277730764e-05 1.993708101902934117e-05 1.703575396779992182e-05 1.469653523394637131e-05 1.238724771412433579e-05 1.055397812354683561e-05 8.776990820212663864e-06 7.387836113840705446e-06 6.063266769318332011e-06 5.043503937851488617e-06 4.085585146336589307e-06 3.359237462797233029e-06 2.686279764845726275e-06 2.183681728018858075e-06 1.723968663937974288e-06 1.385780606116958614e-06 1.080160505124953491e-06 8.586886236330490812e-07 6.608168159298576266e-07 5.195463241174342059e-07 3.946848127809171253e-07 3.068144735971577039e-07 2.299227358491123388e-07 1.764933031406706310e-07 1.301279628897633045e-07 9.813137672223190140e-08 7.046812694270781994e-08 5.114648034860354405e-08 3.427215683510581101e-08 2.168056456459940698e-08 1.018430422187397381e-08 0.000000000000000000e+00
0.000000000000000000e+00 8.986073818272982774e-09 1.917285973335961075e-08 3.039652065764690529e-08 4.556018041797299054e-08 6.306261248213845496e-08 8.831063589964866384e-08 1.177586633218332894e-07 1.607087408080897834e-07 2.106257452352870627e-07 2.828881451483007601e-07 3.661961361070877245e-07 4.852429142019476417e-07 6.211717307954208196e-07 8.126090826717399822e-07 1.028945061143764880e-06 1.329091990636534531e-06 1.664605202133803188e-06 2.123111278002768197e-06 2.629809915054483566e-06 3.311815639397155407e-06 4.056433567928613373e-06 5.043505683944966519e-06 6.107362327259055280e-06 7.496168545548686813e-06 8.972309000071659077e-06 1.086981411679347723e-05 1.285624010615964056e-05 1.537022928525227358e-05 1.795820280010915402e-05 2.118231742226637019e-05 2.443931051882696439e-05 2.843266387428268680e-05 3.238066449672308641e-05 3.714357019011590722e-05 4.173515366552701180e-05 4.718446972796873492e-05 5.228111225493386029e-05 5.823082248195493522e-05 6.358984288143828764e-05 6.974404326404287625e-05 7.502142187556413110e-05 8.098681249722780964e-05 8.576185209340068830e-05 9.108410222637203159e-05 9.490763859368246853e-05 9.913018626111484331e-05 1.015910470479271287e-04 1.043270532697433993e-04 1.051236526737863033e-04 1.061248009454632485e-04 1.051236526737846363e-04 1.043270532697392522e-04 1.015910470479195935e-04 9.913018626110017947e-05 9.490763859365758609e-05 9.108410222632505853e-05 8.576185209332211074e-05 8.098681249708182181e-05 7.502142187532240822e-05 6.974404326360026426e-05 6.358984288071254981e-05 5.823082248064472433e-05 5.228111225280656754e-05 4.718446972418212495e-05 4.173515365943944021e-05 3.714357017943131843e-05 3.238066447971556607e-05 2.843266384484724495e-05 2.443931047243711117e-05 2.118231734309069050e-05 1.795820267657304768e-05 1.537022907731853621e-05 1.285623978497373059e-05 1.086981358361492086e-05 8.972308184779677405e-06 7.496167210684731026e-06 6.107360306727393747e-06 5.043502420928819869e-06 4.056428678987831723e-06 3.311807851510200972e-06 2.629798365631256070e-06 2.123093129641230632e-06 1.664578564187707662e-06 1.329050698214563183e-06 1.028885077466435824e-06 8.125173520053821553e-07 6.210398588257291377e-07 4.850439549829547401e-07 3.659130934767879330e-07 2.824668266691172119e-07 2.100326542477248979e-07 1.598376920928286694e-07 1.165454204770628035e-07 8.655253107617661134e-08 6.063983325788751421e-08 4.209602118501045699e-08 2.567374427968893577e-08 1.250975667238750286e-08 0.000000000000000000e+00
0.000000000000000000e+00 1.096463501473026562e-08 2.254161870945332792e-08 3.708660820682030665e-08 5.363021884006268780e-08 7.693616684066958725e-08 1.041314476918344766e-07 1.436634682387866456e-07 1.898785076768169524e-07 2.569883749399023326e-07 3.349563805408207700e-07 4.469223511535248667e-07 5.758620436506988849e-07 7.584419893712213702e-07 9.666510873194156109e-07 1.257121085768633842e-06 1.584951224129826389e-06 2.035434034695926112e-06 2.538361137773884104e-06 3.219005845198405966e-06 3.970242052191654108e-06 4.971501809928652896e-06 6.063267842822668955e-06 7.496168545548686813e-06 9.038405729165055030e-06 1.103137584584290906e-05 1.314641619168464403e-05 1.583707769062846427e-05 1.864875132200230170e-05 2.216922469270753558e-05 2.578525461178222058e-05 3.024021108011620712e-05 3.472772905267929874e-05 4.016581724697579396e-05 4.552158028252149016e-05 5.190303846278840902e-05 5.802240684867139195e-05 6.518846276249341831e-05 7.184004915914954631e-05 7.949249161807829533e-05 8.630773196126592997e-05 9.400864747596573122e-05 1.004959748073789476e-04 1.076964966285389320e-04 1.132867235183148395e-04 1.193883420744795985e-04 1.235103768449597394e-04 1.279528404163528536e-04 1.301280520977910317e-04 1.324866052761972644e-04 1.324198786013661340e-04 1.324866052761951773e-04 1.301280520977863696e-04 1.279528404163433127e-04 1.235103768449432595e-04 1.193883420744481973e-04 1.132867235182619440e-04 1.076964966284399715e-04 1.004959748072142167e-04 9.400864747566208685e-05 8.630773196076546225e-05 7.949249161716871747e-05 7.184004915766496182e-05 6.518846275983321986e-05 5.802240684437206278e-05 5.190303845519222433e-05 4.552158027036555771e-05 4.016581722579734787e-05 3.472772901912316018e-05 3.024021102246441728e-05 2.578525452134313044e-05 2.216922453947338007e-05 1.864875108401992484e-05 1.583707729295530129e-05 1.314641558026186639e-05 1.103137483814961942e-05 9.038404195432200904e-06 7.496166052305809812e-06 6.063264086425094063e-06 4.971495786594276967e-06 3.970233069454049588e-06 3.218991636750174895e-06 2.538340164713013611e-06 2.035401308642059135e-06 1.584903412862397437e-06 1.257047485969377942e-06 9.665446700924305887e-07 7.582803702827449480e-07 5.756307823596980513e-07 4.465758244310674132e-07 3.344657019283696295e-07 2.562629350932071339e-07 1.888620586916481538e-07 1.421806900940604758e-07 1.020757651991406502e-07 7.397715447479582583e-08 4.957147142345770632e-08 3.132167441768345681e-08 1.471864373878440108e-08 0.000000000000000000e+00
0.000000000000000000e+00 1.280778528770069349e-08 2.731712730899172283e-08 4.335812885030511955e-08 6.498666033801632835e-08 9.008161044039120991e-08 1.261758065317707142e-07 1.685275098718346057e-07 2.300880136221788229e-07 3.020990022406732597e-07 4.059698911714258663e-07 5.265472482024723565e-07 6.982096817473174866e-07 8.956616839828058485e-07 1.172683329849639898e-06 1.488199307710607623e-06 1.924234843838361035e-06 2.415752322460540994e-06 3.084746830137984764e-06 3.830731888715144906e-06 4.830638669185179559e-06 5.932935467072985859e-06 7.387836819761104486e-06 8.972309000071659077e-06 1.103137584584290906e-05 1.324464058675692712e-05 1.607599244240707833e-05 1.907627290771473559e-05 2.285367807641647755e-05 2.679387625392580570e-05 3.167460301986570577e-05 3.667638447241457060e-05 4.276965487854234824e-05 4.888891225854855867e-05 5.621656010723829832e-05 6.340325888365044079e-05 7.185740722081330361e-05 7.991640391308274787e-05 8.922289290906989167e-05 9.778619230717661398e-05 1.074860576457549167e-04 1.160096884194478377e-04 1.254723325565998057e-04 1.332703577984212923e-04 1.417487771442365219e-04 1.480706472579114495e-04 1.547994375797468575e-04 1.589442445600265283e-04 1.632660090362826188e-04 1.647111540779557729e-04 1.662015878470089346e-04 1.647111540779534148e-04 1.632660090362768183e-04 1.589442445600159032e-04 1.547994375797262035e-04 1.480706472578763213e-04 1.417487771441703313e-04 1.332703577983104326e-04 1.254723325563940784e-04 1.160096884191069645e-04 1.074860576451312837e-04 9.778619230615341173e-05 8.922289290722415945e-05 7.991640391008402085e-05 7.185740721547973365e-05 6.340325887507006479e-05 5.621656009218978901e-05 4.888891223457782442e-05 4.276965483708520155e-05 3.667638440703104708e-05 3.167460290834877673e-05 2.679387607979674330e-05 2.285367778351465279e-05 1.907627245492653464e-05 1.607599169122005613e-05 1.324463943716361121e-05 1.103137396469528525e-05 8.972306150218267812e-06 7.387832219843293194e-06 5.932928568913448651e-06 4.830627685892618902e-06 3.830715585288799813e-06 3.084721222331650658e-06 2.415714698800174415e-06 1.924176543568543624e-06 1.488114530303772455e-06 1.172553723330099705e-06 8.954751598128254531e-07 6.979283366417772788e-07 5.261465446317314590e-07 4.053735369866975614e-07 3.012584989559615861e-07 2.288537291389988630e-07 1.668061329351727281e-07 1.236814243010996825e-07 8.663952414478346812e-08 6.006474297570183717e-08 3.663825161915518130e-08 1.783487924755697098e-08 0.000000000000000000e+00
0.000000000000000000e+00 1.541590381648660261e-08 3.172261255893202892e-08 5.218389836660225851e-08 7.555916448962286336e-08 1.084105687144021842e-07 1.469564672582157266e-07 2.028185999005482100e-07 2.685227855692490905e-07 3.636171303597803558e-07 4.748191736636845434e-07 6.339599481854514750e-07 8.185026286533027291e-07 1.078893375825664379e-06 1.378043664633221053e-06 1.793879668745762780e-06 2.266933751424392291e-06 2.914581044440055499e-06 3.643795451709301440e-06 4.626970629105932473e-06 5.722070544710790775e-06 7.175977880722789948e-06 8.776991248269349285e-06 1.086981411679348231e-05 1.314641619168464403e-05 1.607599244240707833e-05 1.922103370655848392e-05 2.320412825416143146e-05 2.741875640882322901e-05 3.267032748629295012e-05 3.813839181383425932e-05 4.483896585336950559e-05 5.168957577225205281e-05 5.994068088983242317e-05 6.820025014194637232e-05 7.797112073126773223e-05 8.751016981850007626e-05 9.858363206555563051e-05 1.090687797256627457e-04 1.209996895018361582e-04 1.318664777363330110e-04 1.439705282818556171e-04 1.544355728102397732e-04 1.658266626022221349e-04 1.749546030644352822e-04 1.846416515425642680e-04 1.914703672491970714e-04 1.985076102425081118e-04 2.022144286339408806e-04 2.058760834397402708e-04 2.059450321688690167e-04 2.058760834397373705e-04 2.022144286339344567e-04 1.985076102424948574e-04 1.914703672491741406e-04 1.846416515425205204e-04 1.749546030643616649e-04 1.658266626020844954e-04 1.544355728100105186e-04 1.439705282814333204e-04 1.318664777356365195e-04 1.209996895005713687e-04 1.090687797235971238e-04 9.858363206185713230e-05 8.751016981251877682e-05 7.797112072070756241e-05 6.820025012503598972e-05 5.994068086039123843e-05 5.168957572557170794e-05 4.483896577322295674e-05 3.813839168801690690e-05 3.267032727325094339e-05 2.741875607770792619e-05 2.320412770119053742e-05 1.922103285570299556e-05 1.607599104088068177e-05 1.314641405679527351e-05 1.086981064808952055e-05 8.776986017775278653e-06 7.175969497623104736e-06 5.722058031693614672e-06 4.626950844957895909e-06 3.643766221165787562e-06 2.914535450352467624e-06 2.266867075362353018e-06 1.793777060958252279e-06 1.377895152207349391e-06 1.078667882501866919e-06 8.181796188685387189e-07 6.334760343345241664e-07 4.741331689075120809e-07 3.626030300202618329e-07 2.671001505000262245e-07 2.007433642914431888e-07 1.440756978706230649e-07 1.042637069206671016e-07 6.986326480803082526e-08 4.409246213053024256e-08 2.072645415206159030e-08 0.000000000000000000e+00
0.000000000000000000e+00 1.778485599501849388e-08 3.792089927715197633e-08 6.025493408821835378e-08 9.031568900700539559e-08 1.253667043356779114e-07 1.756497711213951517e-07 2.349854556648343262e-07 3.209737891973754337e-07 4.221772654484706110e-07 5.676916931810856090e-07 7.377189290929039472e-07 9.789906050286534085e-07 1.258454363689483595e-06 1.649234043545225956e-06 2.097653681576855965e-06 2.715269512075407972e-06 3.417074686128495470e-06 4.369017364402139800e-06 5.439705214312662995e-06 6.869835140098591940e-06 8.461139899832686087e-06 1.055397840218740550e-05 1.285624010615964395e-05 1.583707769062846427e-05 1.907627290771473559e-05 2.320412825416143484e-05 2.763041870568170330e-05 3.318044156281473196e-05 3.904488905807188708e-05 4.627697024095079589e-05 5.379367082642371839e-05 6.290527655158216654e-05 7.219810138632679942e-05 8.326222194464929442e-05 9.429913259412953683e-05 1.071931434835663523e-04 1.197169172030251361e-04 1.340550108130389711e-04 1.475266274910705616e-04 1.626160742272899533e-04 1.761939455608621920e-04 1.910407394729207091e-04 2.036213226865550964e-04 2.170087372460486946e-04 2.273463196951156916e-04 2.379951944177456701e-04 2.448967402260883051e-04 2.516876922298800297e-04 2.542456436280891960e-04 2.564494120188906415e-04 2.542456436280859976e-04 2.516876922298720608e-04 2.448967402260736684e-04 2.379951944177172640e-04 2.273463196950674446e-04 2.170087372459577571e-04 2.036213226864028202e-04 1.910407394726383286e-04 1.761939455603939522e-04 1.626160742264339215e-04 1.475266274896653272e-04 1.340550108105060579e-04 1.197169171989074312e-04 1.071931434762477572e-04 9.429913258234825721e-05 8.326222192400105707e-05 7.219810135341460920e-05 6.290527649469798168e-05 5.379367073664843103e-05 4.627697008792645383e-05 3.904488881896102517e-05 3.318044116084187728e-05 2.763041808382447925e-05 2.320412722304764864e-05 1.907627132851366108e-05 1.583707510779515046e-05 1.285623619013315276e-05 1.055397208429830048e-05 8.461130417373187351e-06 6.869820048370342867e-06 5.439682792596500115e-06 4.368982159566183279e-06 3.417022914254213186e-06 2.715189313549186463e-06 2.097536946855408634e-06 1.649055627198229311e-06 1.258197329851529451e-06 9.786029821004213202e-07 7.371662585286677866e-07 5.668692767667950652e-07 4.210168106474848124e-07 3.192697456627352548e-07 2.326060198433844864e-07 1.722017257176385571e-07 1.206024054835450074e-07 8.350231195574956524e-08 5.093966895476568965e-08 2.477352576711275971e-08 0.000000000000000000e+00
0.000000000000000000e+00 2.111508634365370594e-08 4.348908142225084348e-08 7.153294934839412374e-08 1.037036643194762096e-07 1.488215257409746069e-07 2.020361187243683635e-07 2.789509965613164584e-07 3.699369272588419519e-07 5.012379102783270285e-07 6.557260024101800578e-07 8.761461139170837918e-07 1.133433702522193364e-06 1.495355178366646625e-06 1.914082292458514340e-06 2.494336235431039219e-06 3.159430254207612047e-06 4.067156644667886809e-06 5.097537542559715905e-06 6.482399973811405662e-06 8.038493565701404736e-06 1.009787773523241709e-05 1.238724788076361270e-05 1.537022928525227697e-05 1.864875132200230509e-05 2.285367807641648432e-05 2.741875640882322901e-05 3.318044156281473196e-05 3.935206658505873404e-05 4.701414509577922371e-05 5.509949148796882871e-05 6.496796905342972080e-05 7.520634909283975696e-05 8.748243165891451836e-05 9.997048372289844050e-05 1.146652018362720482e-04 1.292679603237569246e-04 1.461084759741188607e-04 1.623707262389810946e-04 1.807182786496686468e-04 1.978013113759530695e-04 2.166113417602639048e-04 2.332892843905854036e-04 2.511500864092799652e-04 2.659004275033635049e-04 2.811793572964802162e-04 2.923852880519716389e-04 3.034834297170197880e-04 3.097268206185585884e-04 3.153956415802367441e-04 3.157688654321244722e-04 3.153956415802327867e-04 3.097268206185498063e-04 3.034834297170017903e-04 2.923852880519405223e-04 2.811793572964209104e-04 2.659004275032635957e-04 2.511500864090934282e-04 2.332892843902745629e-04 2.166113417596918255e-04 1.978013113750089463e-04 1.807182786479554718e-04 1.623707262361815220e-04 1.461084759691096569e-04 1.292679603156510226e-04 1.146652018219704322e-04 9.997048369998237747e-05 8.748243161904284795e-05 7.520634902958047688e-05 6.496796894488407492e-05 5.509949131745483516e-05 4.701414480721878840e-05 3.935206613625682261e-05 3.318044081370540027e-05 2.741875525532857082e-05 2.285367617732885685e-05 1.864874842699271496e-05 1.537022458367744737e-05 1.238724078555699001e-05 1.009786636819645605e-05 8.038476584533264802e-06 6.482373134996497129e-06 5.097497854117109031e-06 4.067094757880689725e-06 3.159339668316336186e-06 2.494196869452954420e-06 1.913880380305188073e-06 1.495048668253545147e-06 1.132994186938361814e-06 8.754877499461966299e-07 6.547916743264276909e-07 4.998568163956734631e-07 3.679972042064522985e-07 2.761214474930152307e-07 1.981033791177618613e-07 1.431598251599757709e-07 9.591678941337273804e-08 6.046905369179439076e-08 2.843210230308531811e-08 0.000000000000000000e+00
0.000000000000000000e+00 2.405512253407742952e-08 5.127725607200567401e-08 8.156327672086021230e-08 1.222654037861692056e-07 1.699445823322925041e-07 2.381881265279021891e-07 3.191471173855053605e-07 4.361625038009202451e-07 5.746777675029322788e-07 7.732877143272494624e-07 1.006788633627372947e-06 1.337193864284535373e-06 1.722433249932202777e-06 2.259589417768158909e-06 2.880356260348863361e-06 3.732916202923134607e-06 4.709106769083697693e-06 6.029470080896250145e-06 7.526817903536784174e-06 9.521173684150468879e-06 1.176018742585147827e-05 1.469653534132868182e-05 1.795820280010915402e-05 2.216922469270753558e-05 2.679387625392580909e-05 3.267032748629295012e-05 3.904488905807188031e-05 4.701414509577922371e-05 5.554219152126299862e-05 6.602617693326366178e-05 7.707529586544426220e-05 9.042295363741004275e-05 1.042458056676822293e-04 1.206385317006810888e-04 1.372687657664476086e-04 1.566040037919019530e-04 1.757369836019861953e-04 1.975063168525535695e-04 2.183877989465195192e-04 2.415808143855656040e-04 2.629423253918853156e-04 2.860222887402323329e-04 3.061134882580868492e-04 3.271160654594730370e-04 3.438797077366852347e-04 3.606675944693843168e-04 3.720679807643454567e-04 3.827220245345552135e-04 3.871706312894564682e-04 3.904220585305764597e-04 3.871706312894521856e-04 3.827220245345445884e-04 3.720679807643258868e-04 3.606675944693463697e-04 3.438797077366206162e-04 3.271160654593513895e-04 3.061134882578830734e-04 2.860222887398547052e-04 2.629423253912588636e-04 2.415808143844211744e-04 2.183877989446397023e-04 1.975063168491674977e-04 1.757369835964783941e-04 1.566040037821190612e-04 1.372687657506901665e-04 1.206385316730812182e-04 1.042458056236626182e-04 9.042295356137307414e-05 7.707529574536556478e-05 6.602617672870051584e-05 5.554219120140793496e-05 4.701414455834775557e-05 3.904488822608532817e-05 3.267032610743295871e-05 2.679387414061448262e-05 2.216922123787547983e-05 1.795819755803650214e-05 1.469652688753473745e-05 1.176017472762102591e-05 9.521153481772932515e-06 7.526787864079748684e-06 6.029422930276520883e-06 4.709037369394217251e-06 3.732808726269402815e-06 2.880199676459357043e-06 2.259350146819526947e-06 1.722088211278100722e-06 1.336673602878979649e-06 1.006046083346929413e-06 7.721828348225493342e-07 5.731170411649537894e-07 4.338707148674094921e-07 3.159432507146566191e-07 2.335450708652367510e-07 1.635210915381302866e-07 1.130777664297960186e-07 6.898513165252656538e-08 3.352012325890916745e-08 0.000000000000000000e+00
0.000000000000000000e+00 2.816909308583679241e-08 5.806632530222320151e-08 9.550555940015557964e-08 1.386211652149870178e-07 1.989792353516486960e-07 2.705158531467707535e-07 3.736725710259757403e-07 4.963568017627032156e-07 6.729526269060342422e-07 8.819344811031593079e-07 1.179328647268919330e-06 1.528613978748578025e-06 2.018661431826770862e-06 2.589394677041409958e-06 3.378233116945193018e-06 4.288887704567657766e-06 5.528555268756445992e-06 6.946631520619949027e-06 8.847727788712440695e-06 1.100183958778804640e-05 1.384554486521418610e-05 1.703575403113305979e-05 2.118231742226637019e-05 2.578525461178222058e-05 3.167460301986570577e-05 3.813839181383425932e-05 4.627697024095080267e-05 5.509949148796883548e-05 6.602617693326366178e-05 7.770925117670292868e-05 9.193282774935591548e-05 1.069052774992456625e-04 1.248075578884456178e-04 1.433131192868642963e-04 1.650168632763835991e-04 1.869702876273543685e-04 2.121814438557061025e-04 2.370096537534058419e-04 2.648605019557793592e-04 2.913658176795062707e-04 3.203081161046172909e-04 3.466135877811877728e-04 3.744314175128536019e-04 3.980821966300949252e-04 4.220957801624824579e-04 4.403737224643041273e-04 4.578644412534595988e-04 4.683046521907492763e-04 4.770963566060212294e-04 4.780809605935167615e-04 4.770963566060160252e-04 4.683046521907377295e-04 4.578644412534358006e-04 4.403737224642630902e-04 4.220957801624042869e-04 3.980821966299630320e-04 3.744314175126073796e-04 3.466135877807772939e-04 3.203081161038623067e-04 2.913658176782597093e-04 2.648605019535188519e-04 2.370096537497098780e-04 2.121814438490972397e-04 1.869702876166540791e-04 1.650168632575157708e-04 1.433131192566142968e-04 1.248075578358437334e-04 1.069052774157390424e-04 9.193282760614602221e-05 7.770925095159474788e-05 6.602617655250854196e-05 5.509949089539071810e-05 4.627696925233287627e-05 3.813839029050712702e-05 3.167460051300305482e-05 2.578525078755822917e-05 2.118231121412936889e-05 1.703574465539508422e-05 1.384552985004634404e-05 1.100181713919772701e-05 8.847692319894484361e-06 6.946579027348703937e-06 5.528473437294463148e-06 4.288767821306103704e-06 3.378048717209364629e-06 2.589127276043567738e-06 2.018255572307840148e-06 1.528031438493422242e-06 1.178456127480167319e-06 8.806949550376470226e-07 6.711204519145618930e-07 4.937807192603676372e-07 3.699145621492217811e-07 2.652865393059711245e-07 1.914499531727204986e-07 1.282526789242221336e-07 8.077028767853007261e-08 3.798583008683630786e-08 0.000000000000000000e+00
0.000000000000000000e+00 3.168483908691107333e-08 6.752700853859956685e-08 1.075171742275716852e-07 1.611917351665795078e-07 2.243387362714412932e-07 3.145438574515917229e-07 4.220873540087848169e-07 5.771725693824717727e-07 7.617396176914197375e-07 1.025748628151265456e-06 1.337929414124152486e-06 1.778603434505198793e-06 2.295598798751681783e-06 3.014746960793135185e-06 3.851389752667529910e-06 4.997738667649286540e-06 6.319813130969919661e-06 8.103920328796301260e-06 1.014306020987206394e-05 1.285303746947738934e-05 1.592149866460996300e-05 1.993708105943288729e-05 2.443931051882697116e-05 3.024021108011621390e-05 3.667638447241456382e-05 4.483896585336951237e-05 5.379367082642373194e-05 6.496796905342972080e-05 7.707529586544426220e-05 9.193282774935591548e-05 1.078079552393722008e-04 1.269504317285230716e-04 1.470785609172426160e-04 1.709001636955433199e-04 1.954783238437504689e-04 2.239819763882970594e-04 2.527206241586847039e-04 2.853047474321611984e-04 3.172171883335230479e-04 3.524760431640294300e-04 3.857151483334893337e-04 4.213305428036752506e-04 4.531666569472150158e-04 4.859972748876112652e-04 5.130458116687233944e-04 5.395109005613000011e-04 5.582741795684115606e-04 5.750411787231074793e-04 5.826967999895451547e-04 5.875129448048727878e-04 5.826967999895395168e-04 5.750411787230934931e-04 5.582741795683858650e-04 5.395109005612505615e-04 5.130458116686391519e-04 4.859972748874528091e-04 4.531666569469493863e-04 4.213305428031834023e-04 3.857151483326729836e-04 3.524760431625390314e-04 3.172171883310737268e-04 2.853047474277519650e-04 2.527206241515088034e-04 2.239819763755587681e-04 1.954783238232215886e-04 1.709001636596060565e-04 1.470785608598932542e-04 1.269504316295133768e-04 1.078079550829230199e-04 9.193282748296574764e-05 7.707529544866221550e-05 6.496796835346516617e-05 5.379366974213299369e-05 4.483896405714167982e-05 3.667638171759120329e-05 3.024020657833207556e-05 2.443930368343394076e-05 1.993707004007344775e-05 1.592148210059462287e-05 1.285301112514241507e-05 1.014302100761943751e-05 8.103858812768872683e-06 6.319722513755880830e-06 4.997598363490245208e-06 3.851185166728938183e-06 3.014434392335185891e-06 2.295147652496469635e-06 1.777923255592706782e-06 1.336957682317529449e-06 1.024302804090407732e-06 7.596951810753977865e-07 5.741704188892220634e-07 4.178858072496035385e-07 3.084543247628576199e-07 2.159041777784371014e-07 1.491253085916743636e-07 9.097696142770458713e-08 4.416965060257371846e-08 0.000000000000000000e+00
0.000000000000000000e+00 3.659433973555158819e-08 7.549258458073537020e-08 1.241664063816997196e-07 1.804219954734846753e-07 2.590531169334554088e-07 3.526674732855796324e-07 4.873905683014696878e-07 6.484144240178306008e-07 8.796937182744794368e-07 1.154855348708158261e-06 1.545560840226641142e-06 2.007084846743875875e-06 2.653183066853063024e-06 3.410337862401574195e-06 4.454597159259452177e-06 5.668224051630311415e-06 7.316910039806129601e-06 9.216650256968045331e-06 1.175845362014711951e-05 1.466150230909276700e-05 1.848680466017653875e-05 2.281569137627690184e-05 2.843266387428268680e-05 3.472772905267930551e-05 4.276965487854234824e-05 5.168957577225205281e-05 6.290527655158218009e-05 7.520634909283975696e-05 9.042295363741004275e-05 1.069052774992456625e-04 1.269504317285230716e-04 1.483575835512913844e-04 1.739278466641170338e-04 2.007878378990932220e-04 2.322538261931040573e-04 2.646562668173871357e-04 3.018070325275252347e-04 3.391292139330893680e-04 3.808836493962709617e-04 4.215119419560941355e-04 4.656676156511122423e-04 5.068109210517719688e-04 5.499554049401962586e-04 5.876995202587865846e-04 6.254475580934874433e-04 6.552084703555085621e-04 6.828895366695286956e-04 7.003195465742177717e-04 7.140599125614452078e-04 7.162095082775500263e-04 7.140599125614385942e-04 7.003195465742029181e-04 6.828895366694982295e-04 6.552084703554556530e-04 6.254475580933869377e-04 5.876995202586169070e-04 5.499554049398797800e-04 5.068109210512439624e-04 4.656676156501417187e-04 4.215119419544910884e-04 3.808836493933656793e-04 3.391292139283369304e-04 3.018070325190319201e-04 2.646562668036287727e-04 2.322538261688570683e-04 2.007878378601984177e-04 1.739278465965172994e-04 1.483575834439163652e-04 1.269504315444691547e-04 1.069052772097703503e-04 9.042295314800492259e-05 7.520634833071278248e-05 6.290527528063839422e-05 5.168957381267809056e-05 4.276965165502684532e-05 3.472772413199053722e-05 2.843265588900024149e-05 2.281567930837615616e-05 1.848678533961415314e-05 1.466147340287881703e-05 1.175840796072262754e-05 9.216582630493504131e-06 7.316804641202561344e-06 5.668069518691647039e-06 4.454359504830255480e-06 3.409992943355954888e-06 2.652659615005245851e-06 2.006332845912603240e-06 1.544434575082383846e-06 1.153253808475118968e-06 8.773264308054047739e-07 6.450825459516211583e-07 4.825296194984595281e-07 3.458959691990296436e-07 2.493017913883116411e-07 1.669776848890428366e-07 1.050550739142378352e-07 4.941538975389847620e-08 0.000000000000000000e+00
0.000000000000000000e+00 4.063371546132399791e-08 8.658432270761298481e-08 1.379880290182877098e-07 2.069073137512969805e-07 2.883121974338221062e-07 4.044036156227911181e-07 5.434414919929433820e-07 7.435532643286074303e-07 9.828878160325620648e-07 1.324544135413134489e-06 1.730697127864271405e-06 2.302866675791422623e-06 2.977996083759617443e-06 3.915268342840236520e-06 5.012466100500986244e-06 6.512996241875580039e-06 8.255263284741569491e-06 1.060225083121596392e-05 1.330456289252986413e-05 1.689003154537211814e-05 2.098270892937868171e-05 2.633084058545650302e-05 3.238066449672308641e-05 4.016581724697580752e-05 4.888891225854855867e-05 5.994068088983243672e-05 7.219810138632681298e-05 8.748243165891454547e-05 1.042458056676822293e-04 1.248075578884455907e-04 1.470785609172426160e-04 1.739278466641170067e-04 2.025929479128714612e-04 2.365168907363762697e-04 2.721204386359735074e-04 3.134075275028230822e-04 3.558370125972187478e-04 4.039196728797533604e-04 4.520252888866690857e-04 5.050871825936343153e-04 5.563131067004468836e-04 6.109780688980323300e-04 6.611659122470470162e-04 7.124737345607589332e-04 7.560780322295558098e-04 7.979998043815558035e-04 8.289406371050086304e-04 8.555745619877544060e-04 8.687161108799929671e-04 8.759371514385957394e-04 8.687161108799859198e-04 8.555745619877366251e-04 8.289406371049762128e-04 7.979998043814931366e-04 7.560780322294489075e-04 7.124737345605578137e-04 6.611659122467097209e-04 6.109780688974083716e-04 5.563131066994108200e-04 5.050871825917436836e-04 4.520252888835606781e-04 4.039196728741606662e-04 3.558370125881125880e-04 3.134075274866666267e-04 2.721204386099231108e-04 2.365168906907958411e-04 2.025929478400960437e-04 1.739278465385341943e-04 1.470785607186981744e-04 1.248075575505279086e-04 1.042458051386970213e-04 8.748243077087659771e-05 7.219810000989786711e-05 5.994067861051922394e-05 4.888890876070242837e-05 4.016581153296941816e-05 3.238065581518277040e-05 2.633082659427304708e-05 2.098268788407964689e-05 1.688999808286346845e-05 1.330451306272205451e-05 1.060217265643299374e-05 8.255148042097132185e-06 6.512817842481815907e-06 5.012205760000214073e-06 3.914870644798732815e-06 2.977421583917873397e-06 2.302000587225951391e-06 1.729458692446086933e-06 1.322701515472002911e-06 9.802798128875981957e-07 7.397233414229185266e-07 5.380759886387296681e-07 3.966260889065497925e-07 2.775277752655547813e-07 1.914758677691816535e-07 1.168100926491470071e-07 5.666846367360931096e-08 0.000000000000000000e+00
0.000000000000000000e+00 4.628287414695715690e-08 9.554816209828841449e-08 1.571561924018080146e-07 2.285959363818908100e-07 3.283206915877151700e-07 4.475383065973007331e-07 6.188165746042585790e-07 8.244655205479363739e-07 1.119297435166781777e-06 1.471797081848000189e-06 1.971390233283425189e-06 2.564672475154359453e-06 3.393726225327144830e-06 4.370867725136819189e-06 5.716217403303957064e-06 7.289535341728904487e-06 9.423435634035470080e-06 1.189905174871912252e-05 1.520656484234322152e-05 1.901243470030025492e-05 2.402106048567664379e-05 2.973587137453456239e-05 3.714357019011591400e-05 4.552158028252149016e-05 5.621656010723829832e-05 6.820025014194638587e-05 8.326222194464932152e-05 9.997048372289845406e-05 1.206385317006810888e-04 1.433131192868643234e-04 1.709001636955433199e-04 2.007878378990932491e-04 2.365168907363762697e-04 2.746607968181257256e-04 3.193965479080460306e-04 3.663121066861975135e-04 4.201690688628951717e-04 4.753959387565132640e-04 5.372334372282989469e-04 5.988012323359477238e-04 6.656837343340004298e-04 7.296231329483771240e-04 7.964448788134124426e-04 8.566171936638826206e-04 9.162361956154128255e-04 9.648745412060250959e-04 1.009146496576471177e-03 1.038411073796785674e-03 1.060223933368052230e-03 1.064548956834066203e-03 1.060223933368043990e-03 1.038411073796767026e-03 1.009146496576433230e-03 9.648745412059589596e-04 9.162361956152869497e-04 8.566171936636702254e-04 7.964448788130161667e-04 7.296231329477158691e-04 6.656837343327854728e-04 5.988012323339399982e-04 5.372334372246620991e-04 4.753959387505612109e-04 4.201690688522634310e-04 3.663121066689670473e-04 3.193965478776945497e-04 2.746607967694153951e-04 2.365168906517553743e-04 2.007878377646151542e-04 1.709001634651298397e-04 1.433131189242880350e-04 1.206385310879320880e-04 9.997048276817769522e-05 8.326222035312152222e-05 6.820024768669858881e-05 5.621655606970809367e-05 4.552157411558384277e-05 3.714356018549079492e-05 2.973585624544074319e-05 2.402103627072973554e-05 1.901239844763552569e-05 1.520650759191218515e-05 1.189896689598503727e-05 9.423303412521528500e-06 7.289341339556053370e-06 5.715919091833027778e-06 4.370434434886305508e-06 3.393068719878980800e-06 2.563727108437533796e-06 1.969974412692960745e-06 1.469782016934034114e-06 1.116318814377011260e-06 8.202692436759702290e-07 6.126939207031177561e-07 4.390005201563698331e-07 3.160236197499860985e-07 2.116231655351317833e-07 1.330226159978226185e-07 6.257906011740534423e-08 0.000000000000000000e+00
0.000000000000000000e+00 5.072444660923995639e-08 1.080718542063241396e-07 1.723790685034780710e-07 2.585219725843239529e-07 3.606389965157382872e-07 5.060627330297044206e-07 6.809541711320141172e-07 9.322562388582556274e-07 1.234172185924096830e-06 1.664437374700399842e-06 2.178420456317828210e-06 2.901298465731163826e-06 3.758756079312820636e-06 4.947279484597667038e-06 6.346577714125947641e-06 8.257475253201942866e-06 1.049011892870868091e-05 1.349377334234287592e-05 1.697595923731551047e-05 2.159107744332666785e-05 2.689907603267810321e-05 3.382940962558037397e-05 4.173515366552701857e-05 5.190303846278841580e-05 6.340325888365044079e-05 7.797112073126773223e-05 9.429913259412953683e-05 1.146652018362720617e-04 1.372687657664476086e-04 1.650168632763835720e-04 1.954783238437504417e-04 2.322538261931041386e-04 2.721204386359735074e-04 3.193965479080460306e-04 3.698818358452906230e-04 4.285761229097195227e-04 4.900940367214805119e-04 5.600054974137638536e-04 6.315238977802932951e-04 7.106076580211051963e-04 7.888853745163440642e-04 8.725003579241547361e-04 9.514380510934933484e-04 1.031917246107178074e-03 1.102501544438546418e-03 1.169641008305521328e-03 1.221135477667372382e-03 1.264194056403461280e-03 1.286922239556996875e-03 1.298003909634793101e-03 1.286922239556988418e-03 1.264194056403439379e-03 1.221135477667332483e-03 1.169641008305443699e-03 1.102501544438414145e-03 1.031917246106930008e-03 9.514380510930764727e-04 8.725003579233836515e-04 7.888853745150634046e-04 7.106076580187694995e-04 6.315238977764513163e-04 5.600054974068545584e-04 4.900940367102256260e-04 4.285761228897599028e-04 3.698818358130936674e-04 3.193965478517353886e-04 2.721204385460244089e-04 2.322538260379499017e-04 1.954783235983364011e-04 1.650168628588564751e-04 1.372687651125120169e-04 1.146652007388677491e-04 9.429913089229793584e-05 7.797111791403350692e-05 6.340325455793292223e-05 5.190303139851151120e-05 4.173514292627099684e-05 3.382939232280192838e-05 2.689904999033730689e-05 2.159103604497336233e-05 1.697589755058320947e-05 1.349367658454917704e-05 1.048997619502267220e-05 8.257254329640722343e-06 6.346255086037700206e-06 4.946786685598403888e-06 3.758043656398759634e-06 2.900224503833218517e-06 2.176883527657892109e-06 1.662150618422259010e-06 1.230932738780042069e-06 9.274986747587441302e-07 6.742828503637259948e-07 4.963909591556722129e-07 3.472144386854281157e-07 2.393083876205235941e-07 1.459817397963611825e-07 7.077119125075911141e-08 0.000000000000000000e+00
0.000000000000000000e+00 5.697674131651334391e-08 1.177014521866589712e-07 1.936023853922307649e-07 2.818784263363258548e-07 4.049725973280443758e-07 5.526753868403685860e-07 7.645771219758172859e-07 1.020048649650811361e-06 1.385750585755723784e-06 1.824929603074355318e-06 2.446428886596285737e-06 3.188035588891126241e-06 4.222860873802898818e-06 5.448916695969843976e-06 7.134727069691371478e-06 9.117472821337125821e-06 1.180350548745486076e-05 1.493924687196103885e-05 1.912458618476005250e-05 2.397397449872557939e-05 3.035121970193541431e-05 3.768376211944178555e-05 4.718446972796872815e-05 5.802240684867139195e-05 7.185740722081330361e-05 8.751016981850007626e-05 1.071931434835663794e-04 1.292679603237569246e-04 1.566040037919019530e-04 1.869702876273543685e-04 2.239819763882970052e-04 2.646562668173871899e-04 3.134075275028230822e-04 3.663121066861975135e-04 4.285761229097195227e-04 4.951108933499619256e-04 5.718183471558842051e-04 6.521832651039447372e-04 7.426000199042088676e-04 8.348434474718720993e-04 9.355049008754678453e-04 1.034409401567971823e-03 1.138052496389907768e-03 1.234275927068177172e-03 1.329407482255686888e-03 1.409751790858860925e-03 1.481911737114019597e-03 1.531811788015616195e-03 1.567371731887279426e-03 1.575785542746722468e-03 1.567371731887269234e-03 1.531811788015593643e-03 1.481911737113972977e-03 1.409751790858780043e-03 1.329407482255532931e-03 1.234275927067917831e-03 1.138052496389424214e-03 1.034409401567164743e-03 9.355049008739863914e-04 8.348434474694229951e-04 7.426000198997744807e-04 6.521832650966847026e-04 5.718183471429214839e-04 4.951108933289449917e-04 4.285761228727136968e-04 3.663121066267824755e-04 3.134075273996465003e-04 2.646562666533479433e-04 2.239819761073384534e-04 1.869702871850363656e-04 1.566040030446501916e-04 1.292679591589051809e-04 1.071931415423717920e-04 8.751016682230547525e-05 7.185740229516618741e-05 5.802239932122337348e-05 4.718445751939080241e-05 3.768374364719137033e-05 3.035119014286305464e-05 2.397393021919501976e-05 1.912451627177841213e-05 1.493914318712026248e-05 1.180334394577322990e-05 9.117235642680143786e-06 7.134362407485595033e-06 5.448386661294991086e-06 4.222056612458360379e-06 3.186878350391558724e-06 2.444695776282039946e-06 1.822460982270472910e-06 1.382101353127612931e-06 1.014903199912434346e-06 7.570687021148244137e-07 5.421955174760989173e-07 3.898754749337119341e-07 2.610200852779468551e-07 1.639358328264892938e-07 7.712963026697852253e-08 0.000000000000000000e+00
0.000000000000000000e+00 6.162412095334640330e-08 1.312811071398457356e-07 2.095599747171038273e-07 3.143431919621485653e-07 4.389589329040617680e-07 6.162162069086763489e-07 8.301831528699032458e-07 1.137216800073436328e-06 1.507580866644353443e-06 2.034663799126264925e-06 2.667059539302841519e-06 3.555295494422346336e-06 4.613906267471837968e-06 6.079450311574931074e-06 7.813854208658642408e-06 1.017981264227955586e-05 1.295989681309455469e-05 1.669670116761934821e-05 2.105612983038400226e-05 2.683015338010653395e-05 3.351758163605890077e-05 4.224602616258534455e-05 5.228111225493383996e-05 6.518846276249340476e-05 7.991640391308273432e-05 9.858363206555563051e-05 1.197169172030251361e-04 1.461084759741188878e-04 1.757369836019861953e-04 2.121814438557061025e-04 2.527206241586846497e-04 3.018070325275252889e-04 3.558370125972187478e-04 4.201690688628951717e-04 4.900940367214805119e-04 5.718183471558842051e-04 6.592488986171518009e-04 7.592507822988297161e-04 8.640004935362583785e-04 9.806744913992656350e-04 1.099321303129984330e-03 1.226958650096825329e-03 1.351171102116792639e-03 1.478412213152531128e-03 1.593833963077610294e-03 1.703405900336849412e-03 1.790748797758891925e-03 1.862414019844647146e-03 1.902554805819974644e-03 1.920233274433361592e-03 1.902554805819964235e-03 1.862414019844620475e-03 1.790748797758843569e-03 1.703405900336756387e-03 1.593833963077451133e-03 1.478412213152232105e-03 1.351171102116290870e-03 1.226958650095897252e-03 1.099321303128442378e-03 9.806744913964549493e-04 8.640004935316333888e-04 7.592507822905157286e-04 6.592488986036037189e-04 5.718183471318670670e-04 4.900940366827233200e-04 4.201690687951367101e-04 3.558370124889390432e-04 3.018070323408187901e-04 2.527206238632376061e-04 2.121814433532245826e-04 1.757369828146448660e-04 1.461084746532482017e-04 1.197169151536950837e-04 9.858362867403070882e-05 7.991639870303473799e-05 6.518845425620552691e-05 5.228109931688243933e-05 4.224600532188257804e-05 3.351755025188109889e-05 2.683010349971853305e-05 2.105605546241515064e-05 1.669658453725748581e-05 1.295972466026383877e-05 1.017954621527811326e-05 7.813464879720869081e-06 6.078855675032743521e-06 4.613046034319789286e-06 3.553998747518005105e-06 2.665202431935915443e-06 2.031900585999469531e-06 1.503663399255417492e-06 1.131462980263223382e-06 8.221080236626089098e-07 6.045074692299621215e-07 4.226922277150510927e-07 2.910565269975453134e-07 1.775350335957192464e-07 8.601410537955660404e-08 0.000000000000000000e+00
0.000000000000000000e+00 6.825816258615427078e-08 1.410877557528483202e-07 2.320837631576402854e-07 3.381953957147303933e-07 4.860303131887811337e-07 6.640039437522278578e-07 9.190371276363946039e-07 1.227628768162840674e-06 1.668821967057007831e-06 2.200754238612497125e-06 2.952597513607279094e-06 3.853587439539025198e-06 5.109394450881822850e-06 6.604233779284753043e-06 8.657566548818269520e-06 1.108497761488103207e-05 1.437069602889264133e-05 1.822829710638312477e-05 2.337406808826521007e-05 2.937391752036565154e-05 3.726177020580077035e-05 4.639539299355321245e-05 5.823082248195493522e-05 7.184004915914951920e-05 8.922289290906987812e-05 1.090687797256627457e-04 1.340550108130389982e-04 1.623707262389811217e-04 1.975063168525535695e-04 2.370096537534058690e-04 2.853047474321611984e-04 3.391292139330894222e-04 4.039196728797533604e-04 4.753959387565132640e-04 5.600054974137638536e-04 6.521832651039447372e-04 7.592507822988297161e-04 8.739974929371967585e-04 1.004282585212191428e-03 1.140760499952958584e-03 1.291248685672142377e-03 1.443665324933572462e-03 1.605037684935546995e-03 1.760045459163762363e-03 1.914391068950044338e-03 2.049725003588014072e-03 2.170946921663910543e-03 2.258550840428352573e-03 2.319022041557225119e-03 2.335394880573568675e-03 2.319022041557212976e-03 2.258550840428325684e-03 2.170946921663855899e-03 2.049725003587918228e-03 1.914391068949861975e-03 1.760045459163453582e-03 1.605037684934973235e-03 1.443665324932613811e-03 1.291248685670382933e-03 1.140760499950049019e-03 1.004282585206925241e-03 8.739974929285720387e-04 7.592507822834362137e-04 6.521832650789777296e-04 5.600054973698184290e-04 4.753959386859301305e-04 4.039196727572242577e-04 3.391292137382063043e-04 2.853047470984810120e-04 2.370096532278744277e-04 1.975063159649844986e-04 1.623707248548096713e-04 1.340550085069842641e-04 1.090687761647327389e-04 8.922288705646870533e-05 7.184004021094313977e-05 5.823080797229206163e-05 4.639537102884967826e-05 3.726173506487745702e-05 2.937386485191944131e-05 2.337398494326611517e-05 1.822817373005725564e-05 1.437050383158241638e-05 1.108469526267444989e-05 8.657132469234212683e-06 6.603602455582991479e-06 5.108436536418136600e-06 3.852208199243925935e-06 2.950531915620269736e-06 2.197809938035861891e-06 1.664469303305442027e-06 1.221486787893657564e-06 9.100734626535684591e-07 6.514825992967652051e-07 4.679888871267001243e-07 3.132468780315296698e-07 1.965903865646558657e-07 9.249989766357505864e-08 0.000000000000000000e+00
0.000000000000000000e+00 7.284471992000032379e-08 1.551733839243053763e-07 2.478667743194640937e-07 3.718744533014001711e-07 5.197702575043733726e-07 7.299435532435646494e-07 9.844667120799846969e-07 1.349296870600922886e-06 1.790937490237929565e-06 2.418763664147304050e-06 3.174927893598046496e-06 4.235901362066868205e-06 5.505682777398369931e-06 7.261948261238092841e-06 9.349960305134570403e-06 1.219610850320842181e-05 1.555740057615775468e-05 2.007291983819113710e-05 2.537053399189055072e-05 3.238521414708738091e-05 4.056093799676063142e-05 5.123275421638574990e-05 6.358984288143828764e-05 7.949249161807828178e-05 9.778619230717661398e-05 1.209996895018361582e-04 1.475266274910705616e-04 1.807182786496687010e-04 2.183877989465195192e-04 2.648605019557793592e-04 3.172171883335230479e-04 3.808836493962710159e-04 4.520252888866690857e-04 5.372334372282989469e-04 6.315238977802932951e-04 7.426000199042088676e-04 8.640004935362581616e-04 1.004282585212191428e-03 1.155014683010593826e-03 1.325033811955782541e-03 1.503194403109766935e-03 1.697642148998793196e-03 1.893537046518658324e-03 2.097118981189691807e-03 2.289064869704043534e-03 2.473073458487413511e-03 2.626052145129063962e-03 2.750864739213966514e-03 2.824683287571736531e-03 2.854668133636758653e-03 2.824683287571723520e-03 2.750864739213935289e-03 2.626052145129008017e-03 2.473073458487304224e-03 2.289064869703856617e-03 2.097118981189340526e-03 1.893537046518069603e-03 1.697642148997705524e-03 1.503194403107958703e-03 1.325033811952488301e-03 1.155014683005171298e-03 1.004282585202447703e-03 8.640004935203752503e-04 7.426000198760617866e-04 6.315238977348561168e-04 5.372334371488873177e-04 4.520252887597225096e-04 3.808836491774436183e-04 3.172171879871199117e-04 2.648605013668007863e-04 2.183877980232907135e-04 1.807182771012331947e-04 1.475266250877067581e-04 1.209996855253546471e-04 9.778618619593936530e-05 7.949248164258373029e-05 6.358982770198064833e-05 5.123272976980183932e-05 4.056090116519731271e-05 3.238515561821076394e-05 2.537044668639907403e-05 2.007278293551067102e-05 1.555719839401821099e-05 1.219579563125045421e-05 9.349502850624329329e-06 7.261249611818474920e-06 5.504671470420274087e-06 4.234376898364509101e-06 3.172743271395511527e-06 2.415513019496814365e-06 1.786325815166407346e-06 1.342522816558089923e-06 9.749527016508122949e-07 7.161463951263976075e-07 5.005867610294114863e-07 3.444062149139382558e-07 2.100581169846138996e-07 1.017152023558401288e-07 0.000000000000000000e+00
0.000000000000000000e+00 7.956199158122736626e-08 1.645345073766408190e-07 2.706713429363963777e-07 3.947206867375495221e-07 5.674262451293367201e-07 7.759307313203677049e-07 1.074436177235061470e-06 1.436764857622564398e-06 1.954273905853407049e-06 2.580350314387074014e-06 3.464418650773645505e-06 4.527807470600636434e-06 6.008700322570009831e-06 7.778655732293700723e-06 1.020815134621435720e-05 1.309316800555315417e-05 1.699623169658590264e-05 2.160151758400972143e-05 2.774291661523265939e-05 3.494371302969610549e-05 4.441082406864085044e-05 5.544245448762803556e-05 6.974404326404287625e-05 8.630773196126594353e-05 1.074860576457549439e-04 1.318664777363330110e-04 1.626160742272899262e-04 1.978013113759530695e-04 2.415808143855656040e-04 2.913658176795062707e-04 3.524760431640293758e-04 4.215119419560941355e-04 5.050871825936342069e-04 5.988012323359476153e-04 7.106076580211051963e-04 8.348434474718722078e-04 9.806744913992658519e-04 1.140760499952958584e-03 1.325033811955782541e-03 1.523758192063622008e-03 1.746658875394142265e-03 1.980386459624180941e-03 2.232786992668206374e-03 2.485179801674614834e-03 2.741490919009864375e-03 2.976440011011656766e-03 3.189514950999847945e-03 3.351022123868176942e-03 3.460859380213440750e-03 3.493880770960063140e-03 3.460859380213426872e-03 3.351022123868145717e-03 3.189514950999784628e-03 2.976440011011545744e-03 2.741490919009653606e-03 2.485179801674257481e-03 2.232786992667541975e-03 1.980386459623071586e-03 1.746658875392106784e-03 1.523758192060255560e-03 1.325033811949691493e-03 1.140760499942980238e-03 9.806744913814617343e-04 8.348434474429867851e-04 7.106076579702779068e-04 5.988012322542851824e-04 5.050871824519123946e-04 4.215119417306100618e-04 3.524760427780567634e-04 2.913658170714063288e-04 2.415808133588011287e-04 1.978013097741252412e-04 1.626160715592229599e-04 1.318664736148310974e-04 1.074860508732142992e-04 8.630772160240291130e-05 6.974402647003780618e-05 5.544242905419123228e-05 4.441078338452597352e-05 3.494365202611983732e-05 2.774282032436456826e-05 2.160137463360774123e-05 1.699600902827303739e-05 1.309284072537587728e-05 1.020764822778580775e-05 7.777923608154277502e-06 6.007589491222319868e-06 4.526207141666649163e-06 3.462021903684728724e-06 2.576931899850053507e-06 1.949220020907024161e-06 1.429628681906937027e-06 1.064020354215876546e-06 7.613704610599443355e-07 5.464432955533950030e-07 3.656819331304791789e-07 2.293487254553348489e-07 1.079187961097378328e-07 0.000000000000000000e+00
0.000000000000000000e+00 8.376784416829885827e-08 1.784322962746847720e-07 2.851850888351649542e-07 4.279391463831558085e-07 5.986006632696566938e-07 8.409458823721993668e-07 1.135237530640931759e-06 1.556707378677717135e-06 2.068447620449640576e-06 2.795301205773089274e-06 3.673603192632578186e-06 4.904977680075983065e-06 6.383976334156411526e-06 8.428244067142929947e-06 1.086824852384237969e-05 1.419250349567193571e-05 1.813562367310251667e-05 2.343121462405738046e-05 2.967443948708194091e-05 3.794116392499665222e-05 4.762945718183924856e-05 6.028032417033457011e-05 7.502142187556413110e-05 9.400864747596573122e-05 1.160096884194478377e-04 1.439705282818556171e-04 1.761939455608621920e-04 2.166113417602639590e-04 2.629423253918853156e-04 3.203081161046172367e-04 3.857151483334892252e-04 4.656676156511121881e-04 5.563131067004467752e-04 6.656837343340004298e-04 7.888853745163441726e-04 9.355049008754678453e-04 1.099321303129984330e-03 1.291248685672142377e-03 1.503194403109766502e-03 1.746658875394141832e-03 2.010559144844660442e-03 2.305302295593019205e-03 2.614670392306994110e-03 2.944958858428209283e-03 3.271585288380654891e-03 3.593133538465191363e-03 3.874659187986936263e-03 4.107586885284965003e-03 4.253269758493587009e-03 4.309284026450363632e-03 4.253269758493573131e-03 4.107586885284929441e-03 3.874659187986871645e-03 3.593133538465066029e-03 3.271585288380441520e-03 2.944958858427808995e-03 2.614670392306322772e-03 2.305302295591777142e-03 2.010559144842595687e-03 1.746658875390381602e-03 1.503194403103575707e-03 1.291248685661020631e-03 1.099321303111849748e-03 9.355049008433402244e-04 7.888853744644663997e-04 6.656837342433564661e-04 5.563131065555015214e-04 4.656676154013214401e-04 3.857151479379490166e-04 3.203081154322488257e-04 2.629423243376015937e-04 2.166113399924034699e-04 1.761939428159943824e-04 1.439705237412273813e-04 1.160096814387218361e-04 9.400863608317865398e-05 7.502140453295463201e-05 6.028029624423493884e-05 4.762941509135211314e-05 3.794109704771466709e-05 2.967433968680758321e-05 2.343105814417552620e-05 1.813539247604735704e-05 1.419214574908267113e-05 1.086772520994778287e-05 8.427444863631362889e-06 6.382818888353598158e-06 4.903232924871859819e-06 3.671101527141187711e-06 2.791578659497210742e-06 2.063163377020627821e-06 1.548944715712060367e-06 1.124328158998018739e-06 8.251229612482520297e-07 5.765854785455392571e-07 3.964099821905332074e-07 2.417543217583204952e-07 1.170083735974596535e-07 0.000000000000000000e+00
0.000000000000000000e+00 9.021380974103886896e-08 1.866401083928589403e-07 3.070577418649504032e-07 4.480646090109314831e-07 6.442738028297030360e-07 8.817126090327733589e-07 1.221396295939838825e-06 1.634786141615241766e-06 2.224775365364038841e-06 2.940572193577537650e-06 3.950607009216981293e-06 5.169295803275327128e-06 6.865402492605180146e-06 8.899519360248491528e-06 1.169024795888703494e-05 1.501679223077334863e-05 1.951581649017752019e-05 2.484676825406177591e-05 3.195545440227764772e-05 4.033020029942944914e-05 5.134365469686308104e-05 6.424700682564418600e-05 8.098681249722780964e-05 1.004959748073789476e-04 1.254723325565998057e-04 1.544355728102397732e-04 1.910407394729207091e-04 2.332892843905854036e-04 2.860222887402323329e-04 3.466135877811877728e-04 4.213305428036751964e-04 5.068109210517718604e-04 6.109780688980323300e-04 7.296231329483771240e-04 8.725003579241547361e-04 1.034409401567971606e-03 1.226958650096825329e-03 1.443665324933572462e-03 1.697642148998793196e-03 1.980386459624180508e-03 2.305302295593018771e-03 2.660011613019858719e-03 3.055202573457271170e-03 3.470552145786271522e-03 3.908205343077837506e-03 4.333356285127249082e-03 4.732874991460793435e-03 5.054769691149717942e-03 5.276133650703802164e-03 5.348744353767797936e-03 5.276133650703785684e-03 5.054769691149682380e-03 4.732874991460720576e-03 4.333356285127123314e-03 3.908205343077599848e-03 3.470552145785869933e-03 3.055202573456523504e-03 2.660011613018608851e-03 2.305302295590726334e-03 1.980386459620387101e-03 1.697642148991931714e-03 1.443665324922329069e-03 1.226958650076769757e-03 1.034409401535425809e-03 8.725003578669002962e-04 7.296231328563643551e-04 6.109780687383847527e-04 5.068109207976980802e-04 4.213305423688583004e-04 3.466135870959379558e-04 2.860222875834338260e-04 2.332892825853555556e-04 1.910407364666114234e-04 1.544355681647808154e-04 1.254723249243443824e-04 1.004959631296969464e-04 8.098679356788481259e-05 6.424697814839948438e-05 5.134360882955258201e-05 4.033013149862739818e-05 3.195534581484765893e-05 2.484660698564847284e-05 1.951556530740714292e-05 1.501642288645080378e-05 1.168968020267139393e-05 8.898692810799278070e-06 6.864148410288739253e-06 5.167488240843839401e-06 3.947899838984938781e-06 2.936709060056261644e-06 2.219063642833560567e-06 1.626716642836352754e-06 1.209616951271938239e-06 8.652364331894546039e-07 6.205260495146598389e-07 4.151781893252357018e-07 2.602496176309922754e-07 1.224630487079754605e-07 0.000000000000000000e+00
0.000000000000000000e+00 9.369482154996981594e-08 1.995703477079008980e-07 3.191211998407447036e-07 4.789371881250671571e-07 6.703680084566426223e-07 9.420527822030142909e-07 1.272710371048784375e-06 1.745951430482189691e-06 2.321957545922187225e-06 3.139565144471451506e-06 4.130169427017698777e-06 5.518193000079195859e-06 7.190227485241425420e-06 9.500234810977958798e-06 1.226635244351387494e-05 1.603372419012588708e-05 2.051858981231981618e-05 2.654108418026730209e-05 3.367013815397591108e-05 4.311133319700969100e-05 5.422718577106493435e-05 6.874979031601288456e-05 8.576185209340068830e-05 1.076964966285389185e-04 1.332703577984212923e-04 1.658266626022221349e-04 2.036213226865550964e-04 2.511500864092799652e-04 3.061134882580869034e-04 3.744314175128536019e-04 4.531666569472149616e-04 5.499554049401961502e-04 6.611659122470470162e-04 7.964448788134124426e-04 9.514380510934933484e-04 1.138052496389907768e-03 1.351171102116793072e-03 1.605037684935546995e-03 1.893537046518658324e-03 2.232786992668206374e-03 2.614670392306994110e-03 3.055202573457270736e-03 3.541002429754641287e-03 4.082295884589518496e-03 4.652071911326887028e-03 5.242472835231905097e-03 5.798428270714350678e-03 6.280621522257925395e-03 6.605067059439171523e-03 6.727814667766784072e-03 6.605067059439156778e-03 6.280621522257886363e-03 5.798428270714278687e-03 5.242472835231764584e-03 4.652071911326649371e-03 4.082295884589072672e-03 3.541002429753894055e-03 3.055202573455890330e-03 2.614670392304699071e-03 2.232786992664025690e-03 1.893537046511774291e-03 1.605037684923183187e-03 1.351171102096628863e-03 1.138052496354192847e-03 9.514380510358098897e-04 7.964448787126459338e-04 6.611659120858767854e-04 5.499554046624991225e-04 4.531666565073761495e-04 3.744314167653208154e-04 3.061134870856392393e-04 2.511500844436118855e-04 2.036213196337280081e-04 1.658266575529388236e-04 1.332703500334649440e-04 1.076964839576002251e-04 8.576183279929832108e-05 6.874975925119526903e-05 5.422713893491203806e-05 4.311125878671426081e-05 3.367002707467618819e-05 2.654091002898080129e-05 2.051833241343182870e-05 1.603332592040607467e-05 1.226576962872183543e-05 9.499344759920261584e-06 7.188937940730761465e-06 5.516249105917218470e-06 4.127381004179616499e-06 3.135415730429196011e-06 2.316064555975787468e-06 1.737293827789836862e-06 1.260537025969853987e-06 9.243944389267150699e-07 6.457853705235121020e-07 4.437249597265313350e-07 2.705874308864061465e-07 1.309134653541266297e-07 0.000000000000000000e+00
0.000000000000000000e+00 9.949223970675580287e-08 2.059035552799938503e-07 3.387705230438438018e-07 4.945877358646960985e-07 7.113197274471932235e-07 9.740814664122446046e-07 1.349790926205774680e-06 1.807967282846735635e-06 2.461508674191356156e-06 3.256195982777498197e-06 4.376968240171144455e-06 5.732607567333999485e-06 7.618494471532783666e-06 9.886366587231355124e-06 1.299682329019729114e-05 1.671570198353309543e-05 2.174459529140314036e-05 2.772363372058643936e-05 3.569709918391862001e-05 4.512682913139305418e-05 5.753223723345567597e-05 7.213066670692682401e-05 9.108410222637203159e-05 1.132867235183148395e-04 1.417487771442365219e-04 1.749546030644353364e-04 2.170087372460487217e-04 2.659004275033635049e-04 3.271160654594730370e-04 3.980821966300949252e-04 4.859972748876112652e-04 5.876995202587864762e-04 7.124737345607588248e-04 8.566171936638826206e-04 1.031917246107178074e-03 1.234275927068177172e-03 1.478412213152531128e-03 1.760045459163761929e-03 2.097118981189691807e-03 2.485179801674614400e-03 2.944958858428209283e-03 3.470552145786271522e-03 4.082295884589518496e-03 4.766799874287404142e-03 5.532453073977491344e-03 6.339479914055687337e-03 7.155221927855295004e-03 7.878005451687063176e-03 8.406485669266364549e-03 8.597875415076247294e-03 8.406485669266347202e-03 7.878005451687023278e-03 7.155221927855215207e-03 6.339479914055548559e-03 5.532453073977229401e-03 4.766799874286962654e-03 4.082295884588697972e-03 3.470552145784899789e-03 2.944958858425693066e-03 2.485179801670451497e-03 2.097118981182163975e-03 1.760045459151425009e-03 1.478412213130529196e-03 1.234275927032465504e-03 1.031917246044366772e-03 8.566171935629183533e-04 7.124737343856109512e-04 5.876995199799855138e-04 4.859972744105558041e-04 3.980821958781114345e-04 3.271160641902144672e-04 2.659004255221719269e-04 2.170087339471700547e-04 1.749545979656348584e-04 1.417487687682260518e-04 1.132867106993402386e-04 9.108408144932206990e-05 7.213063522188235333e-05 5.753218688000312828e-05 4.512675357957249002e-05 3.569697995044865987e-05 2.772345658692487320e-05 2.174431941295808238e-05 1.671529619372472724e-05 1.299619953000489327e-05 9.885458189414948207e-06 7.617116213956443066e-06 5.730620282639807518e-06 4.373991836400019353e-06 3.251946942329428448e-06 2.455226040656089517e-06 1.799087338857536874e-06 1.336827370395695494e-06 9.559403204531827091e-07 6.851687279647367265e-07 4.583545624549331935e-07 2.871895768287107411e-07 1.351426125526691755e-07 0.000000000000000000e+00
0.000000000000000000e+00 1.019180797650204994e-07 2.170808672080524188e-07 3.472471193030118167e-07 5.212138960710746316e-07 7.299026522975028290e-07 1.025960326561012448e-06 1.386892738583941052e-06 1.903220804940345826e-06 2.532839536624709217e-06 3.426139978427225286e-06 4.510654617911252319e-06 6.029661931966709517e-06 7.863576207179992980e-06 1.039646050987626502e-05 1.343698863282567639e-05 1.757737489664365783e-05 2.251998387750132346e-05 2.915714578324864786e-05 3.703847736342327220e-05 4.747834642023231845e-05 5.981417747392475730e-05 7.593946948801541909e-05 9.490763859368248209e-05 1.193883420744795985e-04 1.480706472579114495e-04 1.846416515425642680e-04 2.273463196951157458e-04 2.811793572964802162e-04 3.438797077366852347e-04 4.220957801624824579e-04 5.130458116687233944e-04 6.254475580934874433e-04 7.560780322295557014e-04 9.162361956154127171e-04 1.102501544438546201e-03 1.329407482255686454e-03 1.593833963077610294e-03 1.914391068950044121e-03 2.289064869704043100e-03 2.741490919009863941e-03 3.271585288380654457e-03 3.908205343077837506e-03 4.652071911326887028e-03 5.532453073977491344e-03 6.539287959048925743e-03 7.676626116048781458e-03 8.875479345977309656e-03 1.003441274649138903e-02 1.092428683977457460e-02 1.128699790379688629e-02 1.092428683977456072e-02 1.003441274649134914e-02 8.875479345977233328e-03 7.676626116048632271e-03 6.539287959048669004e-03 5.532453073977009091e-03 4.652071911326077780e-03 3.908205343076343909e-03 3.271585288378169032e-03 2.741490919005338048e-03 2.289064869696589427e-03 1.914391068936658995e-03 1.593833963055776631e-03 1.329407482217020335e-03 1.102501544376085314e-03 9.162361955063171503e-04 7.560780320550322198e-04 6.254475577928269052e-04 5.130458111924237306e-04 4.220957793530936606e-04 3.438797064669717337e-04 2.811793551680096394e-04 2.273463163887631583e-04 1.846416460745827588e-04 1.480706388472447551e-04 1.193883283512560590e-04 9.490761769248649274e-05 7.593943583860840072e-05 5.981412672875631404e-05 4.747826580534683064e-05 3.703835699113111444e-05 2.915695707270379356e-05 2.251970488380852743e-05 1.757694322926444815e-05 1.343635676147665505e-05 1.039549555657115030e-05 7.862177706121423125e-06 6.027553777193070190e-06 4.507629559890548437e-06 3.421638277154983976e-06 2.526443921540352856e-06 1.893824177446861243e-06 1.373675090346610044e-06 1.006785269083763374e-06 7.031971797810854313e-07 4.829556866414717617e-07 2.944904022450936562e-07 1.424365637296348126e-07 0.000000000000000000e+00
0.000000000000000000e+00 1.067085139760315121e-07 2.208904109494912367e-07 3.634458132622909990e-07 5.308052308931374614e-07 7.635289151832022582e-07 1.046057278117678774e-06 1.449881061902348534e-06 1.943076791833106732e-06 2.646300036549406425e-06 3.502792647518153196e-06 4.710310030186031933e-06 6.173484665019590195e-06 8.208395404777447390e-06 1.066031452149231575e-05 1.402257333064416414e-05 1.805137441397182876e-05 2.349906335641926234e-05 2.999212066869275052e-05 3.865211270067037190e-05 4.892276706763527757e-05 6.243931924626843497e-05 7.839735100878161258e-05 9.913018626111484331e-05 1.235103768449597394e-04 1.547994375797468575e-04 1.914703672491970714e-04 2.379951944177457243e-04 2.923852880519716931e-04 3.606675944693843168e-04 4.403737224643041273e-04 5.395109005613000011e-04 6.552084703555085621e-04 7.979998043815558035e-04 9.648745412060248791e-04 1.169641008305521111e-03 1.409751790858860708e-03 1.703405900336849412e-03 2.049725003588014072e-03 2.473073458487413511e-03 2.976440011011655899e-03 3.593133538465190496e-03 4.333356285127248214e-03 5.242472835231905097e-03 6.339479914055687337e-03 7.676626116048783192e-03 9.259719147716220788e-03 1.108486631192640189e-02 1.300002418618034263e-02 1.466941145579401910e-02 1.542696464860680849e-02 1.466941145579400176e-02 1.300002418618030446e-02 1.108486631192631862e-02 9.259719147716075072e-03 7.676626116048503902e-03 6.339479914055215493e-03 5.242472835231028194e-03 4.333356285125783240e-03 3.593133538462503409e-03 2.976440011007208068e-03 2.473073458479370899e-03 2.049725003574831474e-03 1.703405900313342825e-03 1.409751790820700694e-03 1.169641008238412249e-03 9.648745410981368967e-04 7.979998041944208823e-04 6.552084700575804303e-04 5.395109000515766612e-04 4.403737216606974886e-04 3.606675931131405320e-04 2.923852859346487746e-04 2.379951908925473077e-04 1.914703617996315222e-04 1.547994286283216174e-04 1.235103631428014620e-04 9.913016405433513394e-05 7.839731735055420296e-05 6.243926542083406387e-05 4.892268628956576861e-05 3.865198522598229937e-05 2.999193125004920288e-05 2.349876835566767276e-05 1.805094039510014083e-05 1.402190619203913882e-05 1.065934270628161587e-05 8.206920931225139611e-06 6.171358074500438145e-06 4.707124925878698319e-06 3.498244349110512458e-06 2.639574637552350083e-06 1.933568046807819479e-06 1.435998584618482328e-06 1.026623550385953452e-06 7.355118377035951634e-07 4.919720251644997981e-07 3.081560631191980633e-07 1.450104215012129179e-07 0.000000000000000000e+00
0.000000000000000000e+00 1.078042934722725316e-07 2.296151052667021328e-07 3.673870870014160049e-07 5.514921243413132487e-07 7.725620297912272723e-07 1.086102327353187264e-06 1.468784599504982998e-06 2.016061134382037587e-06 2.684254841535593600e-06 3.632010127073469639e-06 4.784214187505221038e-06 6.397631110014079319e-06 8.348472130710260104e-06 1.104236445674381199e-05 1.428160488095730785e-05 1.869220349134444807e-05 2.396731279148281172e-05 3.105125351843611404e-05 3.948112630914003075e-05 5.064996370718644904e-05 6.387963078912909005e-05 8.118101751260763685e-05 1.015910470479271287e-04 1.279528404163528808e-04 1.589442445600265554e-04 1.985076102425081118e-04 2.448967402260883593e-04 3.034834297170198422e-04 3.720679807643454567e-04 4.578644412534595988e-04 5.582741795684114522e-04 6.828895366695286956e-04 8.289406371050086304e-04 1.009146496576471177e-03 1.221135477667372382e-03 1.481911737114019597e-03 1.790748797758891274e-03 2.170946921663910543e-03 2.626052145129063962e-03 3.189514950999847945e-03 3.874659187986936263e-03 4.732874991460793435e-03 5.798428270714351546e-03 7.155221927855295004e-03 8.875479345977309656e-03 1.108486631192640015e-02 1.386255273059616884e-02 1.720350303422668245e-02 2.063204868948052134e-02 2.265397592680185035e-02 2.063204868948050746e-02 1.720350303422663735e-02 1.386255273059608904e-02 1.108486631192624576e-02 8.875479345977040774e-03 7.155221927854786730e-03 5.798428270713498062e-03 4.732874991459217438e-03 3.874659187984314662e-03 3.189514950995075288e-03 2.626052145121203496e-03 2.170946921649797266e-03 1.790748797735867807e-03 1.481911737073250560e-03 1.221135477601507750e-03 1.009146496461442747e-03 8.289406369209719252e-04 6.828895363525104741e-04 5.582741790661353886e-04 4.578644404000058437e-04 3.720679794253299697e-04 3.034834274725634311e-04 2.448967367390830784e-04 1.985076044762025202e-04 1.589442356892001730e-04 1.279528259432801296e-04 1.015910250012961555e-04 8.118098202117151219e-05 6.387957725741218900e-05 5.064987866952900489e-05 3.948099931105877647e-05 3.105105442756890191e-05 2.396701839751210337e-05 1.869174800663584983e-05 1.428093801590886919e-05 1.104134607227555581e-05 8.346995883646117023e-06 6.395405742279240158e-06 4.781020218829071524e-06 3.627256945467896314e-06 2.677500305312662236e-06 2.006136721988761312e-06 1.454820869603448323e-06 1.065843536323647672e-06 7.443391113121386403e-07 5.110561962809527719e-07 3.116098062015760075e-07 1.506871783735048841e-07 0.000000000000000000e+00
