x,y,phi,Bx,By
0.000000000000000000e+00,0.000000000000000000e+00,0.000000000000000000e+00,0.000000000000000000e+00,0.000000000000000000e+00
0.000000000000000000e+00,1.000000000000000000e+00,0.000000000000000000e+00,0.000000000000000000e+00,-0.000000000000000000e+00
0.000000000000000000e+00,2.000000000000000000e+00,0.000000000000000000e+00,0.000000000000000000e+00,-0.000000000000000000e+00
0.000000000000000000e+00,3.000000000000000000e+00,0.000000000000000000e+00,0.000000000000000000e+00,-0.000000000000000000e+00
0.000000000000000000e+00,4.000000000000000000e+00,0.000000000000000000e+00,0.000000000000000000e+00,-0.000000000000000000e+00
0.000000000000000000e+00,5.000000000000000000e+00,0.000000000000000000e+00,0.000000000000000000e+00,-0.000000000000000000e+00
0.000000000000000000e+00,6.000000000000000000e+00,0.000000000000000000e+00,0.000000000000000000e+00,-0.000000000000000000e+00
0.000000000000000000e+00,7.000000000000000000e+00,0.000000000000000000e+00,0.000000000000000000e+00,-0.000000000000000000e+00
0.000000000000000000e+00,8.000000000000000000e+00,0.000000000000000000e+00,0.000000000000000000e+00,-0.000000000000000000e+00
0.000000000000000000e+00,9.000000000000000000e+00,0.000000000000000000e+00,0.000000000000000000e+00,-0.000000000000000000e+00
0.000000000000000000e+00,1.000000000000000000e+01,0.000000000000000000e+00,0.000000000000000000e+00,-0.000000000000000000e+00
0.000000000000000000e+00,1.100000000000000000e+01,0.000000000000000000e+00,0.000000000000000000e+00,-0.000000000000000000e+00
0.000000000000000000e+00,1.200000000000000000e+01,0.000000000000000000e+00,0.000000000000000000e+00,-0.000000000000000000e+00
0.000000000000000000e+00,1.300000000000000000e+01,0.000000000000000000e+00,0.000000000000000000e+00,-0.000000000000000000e+00
0.000000000000000000e+00,1.400000000000000000e+01,0.000000000000000000e+00,0.000000000000000000e+00,-0.000000000000000000e+00
0.000000000000000000e+00,1.500000000000000000e+01,0.000000000000000000e+00,0.000000000000000000e+00,-0.000000000000000000e+00
0.000000000000000000e+00,1.600000000000000000e+01,0.000000000000000000e+00,0.000000000000000000e+00,-0.000000000000000000e+00
0.000000000000000000e+00,1.700000000000000000e+01,0.000000000000000000e+00,0.000000000000000000e+00,-0.000000000000000000e+00
0.000000000000000000e+00,1.800000000000000000e+01,0.000000000000000000e+00,0.000000000000000000e+00,-0.000000000000000000e+00
0.000000000000000000e+00,1.900000000000000000e+01,0.000000000000000000e+00,0.000000000000000000e+00,-0.000000000000000000e+00
0.000000000000000000e+00,2.000000000000000000e+01,0.000000000000000000e+00,0.000000000000000000e+00,-0.000000000000000000e+00
0.000000000000000000e+00,2.100000000000000000e+01,0.000000000000000000e+00,0.000000000000000000e+00,-0.000000000000000000e+00
0.000000000000000000e+00,2.200000000000000000e+01,0.000000000000000000e+00,0.000000000000000000e+00,-0.000000000000000000e+00
0.000000000000000000e+00,2.300000000000000000e+01,0.000000000000000000e+00,0.000000000000000000e+00,-0.000000000000000000e+00
0.000000000000000000e+00,2.400000000000000000e+01,0.000000000000000000e+00,0.000000000000000000e+00,-0.000000000000000000e+00
0.000000000000000000e+00,2.500000000000000000e+01,0.000000000000000000e+00,0.000000000000000000e+00,-0.000000000000000000e+00
0.000000000000000000e+00,2.600000000000000000e+01,0.000000000000000000e+00,0.000000000000000000e+00,-0.000000000000000000e+00
0.000000000000000000e+00,2.700000000000000000e+01,0.000000000000000000e+00,0.000000000000000000e+00,-0.000000000000000000e+00
0.000000000000000000e+00,2.800000000000000000e+01,0.000000000000000000e+00,0.000000000000000000e+00,-0.000000000000000000e+00
0.000000000000000000e+00,2.900000000000000000e+01,0.000000000000000000e+00,0.000000000000000000e+00,-0.000000000000000000e+00
0.000000000000000000e+00,3.000000000000000000e+01,0.000000000000000000e+00,0.000000000000000000e+00,-0.000000000000000000e+00
0.000000000000000000e+00,3.100000000000000000e+01,0.000000000000000000e+00,0.000000000000000000e+00,-0.000000000000000000e+00
0.000000000000000000e+00,3.200000000000000000e+01,0.000000000000000000e+00,0.000000000000000000e+00,-0.000000000000000000e+00
0.000000000000000000e+00,3.300000000000000000e+01,0.000000000000000000e+00,0.000000000000000000e+00,-0.000000000000000000e+00
0.000000000000000000e+00,3.400000000000000000e+01,0.000000000000000000e+00,0.000000000000000000e+00,-0.000000000000000000e+00
0.000000000000000000e+00,3.500000000000000000e+01,0.000000000000000000e+00,0.000000000000000000e+00,-0.000000000000000000e+00
0.000000000000000000e+00,3.600000000000000000e+01,0.000000000000000000e+00,0.000000000000000000e+00,-0.000000000000000000e+00
0.000000000000000000e+00,3.700000000000000000e+01,0.000000000000000000e+00,0.000000000000000000e+00,-0.000000000000000000e+00
0.000000000000000000e+00,3.800000000000000000e+01,0.000000000000000000e+00,0.000000000000000000e+00,-0.000000000000000000e+00
0.000000000000000000e+00,3.900000000000000000e+01,0.000000000000000000e+00,0.000000000000000000e+00,-0.000000000000000000e+00
0.000000000000000000e+00,4.000000000000000000e+01,0.000000000000000000e+00,0.000000000000000000e+00,-0.000000000000000000e+00
0.000000000000000000e+00,4.100000000000000000e+01,0.000000000000000000e+00,0.000000000000000000e+00,-0.000000000000000000e+00
0.000000000000000000e+00,4.200000000000000000e+01,0.000000000000000000e+00,0.000000000000000000e+00,-0.000000000000000000e+00
0.000000000000000000e+00,4.300000000000000000e+01,0.000000000000000000e+00,0.000000000000000000e+00,-0.000000000000000000e+00
0.000000000000000000e+00,4.400000000000000000e+01,0.000000000000000000e+00,0.000000000000000000e+00,-0.000000000000000000e+00
0.000000000000000000e+00,4.500000000000000000e+01,0.000000000000000000e+00,0.000000000000000000e+00,-0.000000000000000000e+00
0.000000000000000000e+00,4.600000000000000000e+01,0.000000000000000000e+00,0.000000000000000000e+00,-0.000000000000000000e+00
0.000000000000000000e+00,4.700000000000000000e+01,0.000000000000000000e+00,0.000000000000000000e+00,-0.000000000000000000e+00
0.000000000000000000e+00,4.800000000000000000e+01,0.000000000000000000e+00,0.000000000000000000e+00,-0.000000000000000000e+00
0.000000000000000000e+00,4.900000000000000000e+01,0.000000000000000000e+00,0.000000000000000000e+00,-0.000000000000000000e+00
0.000000000000000000e+00,5.000000000000000000e+01,0.000000000000000000e+00,0.000000000000000000e+00,-0.000000000000000000e+00
0.000000000000000000e+00,5.100000000000000000e+01,0.000000000000000000e+00,0.000000000000000000e+00,-0.000000000000000000e+00
0.000000000000000000e+00,5.200000000000000000e+01,0.000000000000000000e+00,0.000000000000000000e+00,-0.000000000000000000e+00
0.000000000000000000e+00,5.300000000000000000e+01,0.000000000000000000e+00,0.000000000000000000e+00,-0.000000000000000000e+00
0.000000000000000000e+00,5.400000000000000000e+01,0.000000000000000000e+00,0.000000000000000000e+00,-0.000000000000000000e+00
0.000000000000000000e+00,5.500000000000000000e+01,0.000000000000000000e+00,0.000000000000000000e+00,-0.000000000000000000e+00
0.000000000000000000e+00,5.600000000000000000e+01,0.000000000000000000e+00,0.000000000000000000e+00,-0.000000000000000000e+00
0.000000000000000000e+00,5.700000000000000000e+01,0.000000000000000000e+00,0.000000000000000000e+00,-0.000000000000000000e+00
0.000000000000000000e+00,5.800000000000000000e+01,0.000000000000000000e+00,0.000000000000000000e+00,-0.000000000000000000e+00
0.000000000000000000e+00,5.900000000000000000e+01,0.000000000000000000e+00,0.000000000000000000e+00,-0.000000000000000000e+00
0.000000000000000000e+00,6.000000000000000000e+01,0.000000000000000000e+00,0.000000000000000000e+00,-0.000000000000000000e+00
0.000000000000000000e+00,6.100000000000000000e+01,0.000000000000000000e+00,0.000000000000000000e+00,-0.000000000000000000e+00
0.000000000000000000e+00,6.200000000000000000e+01,0.000000000000000000e+00,0.000000000000000000e+00,-0.000000000000000000e+00
0.000000000000000000e+00,6.300000000000000000e+01,0.000000000000000000e+00,0.000000000000000000e+00,-0.000000000000000000e+00
0.000000000000000000e+00,6.400000000000000000e+01,0.000000000000000000e+00,0.000000000000000000e+00,-0.000000000000000000e+00
0.000000000000000000e+00,6.500000000000000000e+01,0.000000000000000000e+00,0.000000000000000000e+00,-0.000000000000000000e+00
0.000000000000000000e+00,6.600000000000000000e+01,0.000000000000000000e+00,0.000000000000000000e+00,-0.000000000000000000e+00
0.000000000000000000e+00,6.700000000000000000e+01,0.000000000000000000e+00,0.000000000000000000e+00,-0.000000000000000000e+00
0.000000000000000000e+00,6.800000000000000000e+01,0.000000000000000000e+00,0.000000000000000000e+00,-0.000000000000000000e+00
0.000000000000000000e+00,6.900000000000000000e+01,0.000000000000000000e+00,0.000000000000000000e+00,-0.000000000000000000e+00
0.000000000000000000e+00,7.000000000000000000e+01,0.000000000000000000e+00,0.000000000000000000e+00,-0.000000000000000000e+00
0.000000000000000000e+00,7.100000000000000000e+01,0.000000000000000000e+00,0.000000000000000000e+00,-0.000000000000000000e+00
0.000000000000000000e+00,7.200000000000000000e+01,0.000000000000000000e+00,0.000000000000000000e+00,-0.000000000000000000e+00
0.000000000000000000e+00,7.300000000000000000e+01,0.000000000000000000e+00,0.000000000000000000e+00,-0.000000000000000000e+00
0.000000000000000000e+00,7.400000000000000000e+01,0.000000000000000000e+00,0.000000000000000000e+00,-0.000000000000000000e+00
0.000000000000000000e+00,7.500000000000000000e+01,0.000000000000000000e+00,0.000000000000000000e+00,-0.000000000000000000e+00
0.000000000000000000e+00,7.600000000000000000e+01,0.000000000000000000e+00,0.000000000000000000e+00,-0.000000000000000000e+00
0.000000000000000000e+00,7.700000000000000000e+01,0.000000000000000000e+00,0.000000000000000000e+00,-0.000000000000000000e+00
0.000000000000000000e+00,7.800000000000000000e+01,0.000000000000000000e+00,0.000000000000000000e+00,-0.000000000000000000e+00
0.000000000000000000e+00,7.900000000000000000e+01,0.000000000000000000e+00,0.000000000000000000e+00,-0.000000000000000000e+00
0.000000000000000000e+00,8.000000000000000000e+01,0.000000000000000000e+00,0.000000000000000000e+00,-0.000000000000000000e+00
0.000000000000000000e+00,8.100000000000000000e+01,0.000000000000000000e+00,0.000000000000000000e+00,-0.000000000000000000e+00
0.000000000000000000e+00,8.200000000000000000e+01,0.000000000000000000e+00,0.000000000000000000e+00,-0.000000000000000000e+00
0.000000000000000000e+00,8.300000000000000000e+01,0.000000000000000000e+00,0.000000000000000000e+00,-0.000000000000000000e+00
0.000000000000000000e+00,8.400000000000000000e+01,0.000000000000000000e+00,0.000000000000000000e+00,-0.000000000000000000e+00
0.000000000000000000e+00,8.500000000000000000e+01,0.000000000000000000e+00,0.000000000000000000e+00,-0.000000000000000000e+00
0.000000000000000000e+00,8.600000000000000000e+01,0.000000000000000000e+00,0.000000000000000000e+00,-0.000000000000000000e+00
0.000000000000000000e+00,8.700000000000000000e+01,0.000000000000000000e+00,0.000000000000000000e+00,-0.000000000000000000e+00
0.000000000000000000e+00,8.800000000000000000e+01,0.000000000000000000e+00,0.000000000000000000e+00,-0.000000000000000000e+00
0.000000000000000000e+00,8.900000000000000000e+01,0.000000000000000000e+00,0.000000000000000000e+00,-0.000000000000000000e+00
0.000000000000000000e+00,9.000000000000000000e+01,0.000000000000000000e+00,0.000000000000000000e+00,-0.000000000000000000e+00
0.000000000000000000e+00,9.100000000000000000e+01,0.000000000000000000e+00,0.000000000000000000e+00,-0.000000000000000000e+00
0.000000000000000000e+00,9.200000000000000000e+01,0.000000000000000000e+00,0.000000000000000000e+00,-0.000000000000000000e+00
0.000000000000000000e+00,9.300000000000000000e+01,0.000000000000000000e+00,0.000000000000000000e+00,-0.000000000000000000e+00
0.000000000000000000e+00,9.400000000000000000e+01,0.000000000000000000e+00,0.000000000000000000e+00,-0.000000000000000000e+00
0.000000000000000000e+00,9.500000000000000000e+01,0.000000000000000000e+00,0.000000000000000000e+00,-0.000000000000000000e+00
0.000000000000000000e+00,9.600000000000000000e+01,0.000000000000000000e+00,0.000000000000000000e+00,-0.000000000000000000e+00
0.000000000000000000e+00,9.700000000000000000e+01,0.000000000000000000e+00,0.000000000000000000e+00,-0.000000000000000000e+00
0.000000000000000000e+00,9.800000000000000000e+01,0.000000000000000000e+00,0.000000000000000000e+00,-0.000000000000000000e+00
0.000000000000000000e+00,9.900000000000000000e+01,0.000000000000000000e+00,0.000000000000000000e+00,0.000000000000000000e+00
1.000000000000000000e+00,0.000000000000000000e+00,0.000000000000000000e+00,0.000000000000000000e+00,0.000000000000000000e+00
1.000000000000000000e+00,1.000000000000000000e+00,5.122800868329481071e-06,5.165746208426804926e-06,-5.165746208426804926e-06
1.000000000000000000e+00,2.000000000000000000e+00,1.033149241685360985e-05,1.033165864958499307e-05,-5.208525315792747254e-06
1.000000000000000000e+00,3.000000000000000000e+00,1.553985149991497558e-05,1.567003990211928512e-05,-5.337212830028252434e-06
1.000000000000000000e+00,4.000000000000000000e+00,2.100591807691011472e-05,2.100758755750339413e-05,-5.464397096401861430e-06
1.000000000000000000e+00,5.000000000000000000e+00,2.646864569271869844e-05,2.669012568380316146e-05,-5.677496683002249080e-06
1.000000000000000000e+00,6.000000000000000000e+00,3.236091144291461288e-05,3.236679523261096436e-05,-5.886381960499569737e-06
1.000000000000000000e+00,7.000000000000000000e+00,3.824140961371783791e-05,3.856089777071717320e-05,-6.181043000964507849e-06
1.000000000000000000e+00,8.000000000000000000e+00,4.472299744484362858e-05,4.473724933060434195e-05,-6.467335945365077290e-06
1.000000000000000000e+00,9.000000000000000000e+00,5.117608150444799249e-05,5.160290819449661549e-05,-6.838903054488062219e-06
1.000000000000000000e+00,1.000000000000000000e+01,5.840080355381975302e-05,5.842910959242159650e-05,-7.196416010769917044e-06
1.000000000000000000e+00,1.100000000000000000e+01,6.556891352598782658e-05,6.611493143081462230e-05,-7.638059934931695912e-06
1.000000000000000000e+00,1.200000000000000000e+01,7.367692342368314484e-05,7.372659618306822349e-05,-8.058337138310253168e-06
1.000000000000000000e+00,1.300000000000000000e+01,8.168558780260833292e-05,8.236502804782494210e-05,-8.560639417290490777e-06
1.000000000000000000e+00,1.400000000000000000e+01,9.079820225826412640e-05,9.087825837620514891e-05,-9.032558337714764187e-06
1.000000000000000000e+00,1.500000000000000000e+01,9.975070447803786129e-05,1.005799615369477472e-04,-9.583099947393914058e-06
1.000000000000000000e+00,1.600000000000000000e+01,1.099644021530519545e-04,1.100855971070016474e-04,-1.009250272106439352e-05
1.000000000000000000e+00,1.700000000000000000e+01,1.199357099201666483e-04,1.209330336927593190e-04,-1.067551747033565349e-05
1.000000000000000000e+00,1.800000000000000000e+01,1.313154370937232615e-04,1.314902273558640105e-04,-1.120493691141587775e-05
1.000000000000000000e+00,1.900000000000000000e+01,1.423455837429984038e-04,1.435306559027337405e-04,-1.180109867679471282e-05
1.000000000000000000e+00,2.000000000000000000e+01,1.549176344473126871e-04,1.551600352250448846e-04,-1.232964992658209938e-05
1.000000000000000000e+00,2.100000000000000000e+01,1.670048835961626026e-04,1.683982562075670667e-04,-1.291606720204695625e-05
1.000000000000000000e+00,2.200000000000000000e+01,1.807497688514065996e-04,1.810750763223616219e-04,-1.341957778428896117e-05
1.000000000000000000e+00,2.300000000000000000e+01,1.938440391647405249e-04,1.954664175940876072e-04,-1.397006743916719628e-05
1.000000000000000000e+00,2.400000000000000000e+01,2.086899037297409922e-04,2.091142551228417610e-04,-1.442151317189969842e-05
1.000000000000000000e+00,2.500000000000000000e+01,2.226870655085399218e-04,2.245584256908292938e-04,-1.490721550241602689e-05
1.000000000000000000e+00,2.600000000000000000e+01,2.385043347345730460e-04,2.390440887889358360e-04,-1.527751517167032062e-05
1.000000000000000000e+00,2.700000000000000000e+01,2.532420958518805630e-04,2.553806387823507294e-04,-1.566789225647241253e-05
1.000000000000000000e+00,2.800000000000000000e+01,2.698401192475178710e-04,2.705110542059231422e-04,-1.592708843723203687e-05
1.000000000000000000e+00,2.900000000000000000e+01,2.850962727263446368e-04,2.875172369069739020e-04,-1.619131617532228694e-05
1.000000000000000000e+00,3.000000000000000000e+01,3.022227515981624449e-04,3.030390980403649534e-04,-1.631013242961529969e-05
1.000000000000000000e+00,3.100000000000000000e+01,3.177165375855752361e-04,3.204309125795884146e-04,-1.641885362182400111e-05
1.000000000000000000e+00,3.200000000000000000e+01,3.350604588418104471e-04,3.360338094201557511e-04,-1.637057067788987995e-05
1.000000000000000000e+00,3.300000000000000000e+01,3.504576789413549960e-04,3.534708885466053682e-04,-1.629792447545148318e-05
1.000000000000000000e+00,3.400000000000000000e+01,3.676563077927134135e-04,3.687944730771279067e-04,-1.606046356694389708e-05
1.000000000000000000e+00,3.500000000000000000e+01,3.825786060752427902e-04,3.858892549420431077e-04,-1.578625067507306661e-05
1.000000000000000000e+00,3.600000000000000000e+01,3.992288091428595467e-04,4.005347146604660300e-04,-1.534429755001024613e-05
1.000000000000000000e+00,3.700000000000000000e+01,4.132672011752632824e-04,4.168659996674000615e-04,-1.485608873084517576e-05
1.000000000000000000e+00,3.800000000000000000e+01,4.289409866045498982e-04,4.304117258965293102e-04,-1.420304613730723089e-05
1.000000000000000000e+00,3.900000000000000000e+01,4.416732934498777442e-04,4.455422869957683480e-04,-1.349800402482647754e-05
1.000000000000000000e+00,4.000000000000000000e+01,4.559369946542028533e-04,4.575631613440299568e-04,-1.263753451449805979e-05
1.000000000000000000e+00,4.100000000000000000e+01,4.669483624788738638e-04,4.710605884268335508e-04,-1.172370639806661046e-05
1.000000000000000000e+00,4.200000000000000000e+01,4.793844074503360742e-04,4.811498210883983877e-04,-1.067063133339995118e-05
1.000000000000000000e+00,4.300000000000000000e+01,4.882896251456737662e-04,4.926092984139091155e-04,-9.567492419212757747e-06
1.000000000000000000e+00,4.400000000000000000e+01,4.985193922887615897e-04,5.004013053107004769e-04,-8.347854121148936407e-06
1.000000000000000000e+00,4.500000000000000000e+01,5.049853333879716390e-04,5.094686209837981372e-04,-7.085941111746249521e-06
1.000000000000000000e+00,4.600000000000000000e+01,5.126912745122540888e-04,5.146611016439127124e-04,-5.736113992623717746e-06
1.000000000000000000e+00,4.700000000000000000e+01,5.164575613732190745e-04,5.210539480972890998e-04,-4.355684577223950353e-06
1.000000000000000000e+00,4.800000000000000000e+01,5.214026436667019895e-04,5.234271953787630015e-04,-2.920530581422011406e-06
1.000000000000000000e+00,4.900000000000000000e+01,5.222986225360630973e-04,5.269528031018088157e-04,-1.469304057577329459e-06
1.000000000000000000e+00,5.000000000000000000e+01,5.243412517818566484e-04,5.263843887818471772e-04,5.077541969235148389e-10
1.000000000000000000e+00,5.100000000000000000e+01,5.222976070276692502e-04,5.269517740000889596e-04,1.470348947022045646e-06
1.000000000000000000e+00,5.200000000000000000e+01,5.214005538878125571e-04,5.234251214547186752e-04,2.921620706762757032e-06
1.000000000000000000e+00,5.300000000000000000e+01,5.164543656141437362e-04,5.210507098539137209e-04,4.356882030630672767e-06
1.000000000000000000e+00,5.400000000000000000e+01,5.126867898265512116e-04,5.146566502948467800e-04,5.737436255887930475e-06
1.000000000000000000e+00,5.500000000000000000e+01,5.049794931023678752e-04,5.094627040566707338e-04,7.087460507813544974e-06
1.000000000000000000e+00,5.600000000000000000e+01,4.985118688109241216e-04,5.003938359918436943e-04,8.349591472363272152e-06
1.000000000000000000e+00,5.700000000000000000e+01,4.882803101576413309e-04,4.925998633317245010e-04,9.569537905100198270e-06
1.000000000000000000e+00,5.800000000000000000e+01,4.793727930007237251e-04,4.811382868435156693e-04,1.067301099970955009e-05
1.000000000000000000e+00,5.900000000000000000e+01,4.669342881582222307e-04,4.710463364316535618e-04,1.172653712541092382e-05
1.000000000000000000e+00,6.000000000000000000e+01,4.559197187499018774e-04,4.575459990392063536e-04,1.264084969762491076e-05
1.000000000000000000e+00,6.100000000000000000e+01,4.416525887629724092e-04,4.455213269184610985e-04,1.350195781377197209e-05
1.000000000000000000e+00,6.200000000000000000e+01,4.289158031223579332e-04,4.303866991833743333e-04,1.420768170163090312e-05
1.000000000000000000e+00,6.300000000000000000e+01,4.132372253597106030e-04,4.168356630049230467e-04,1.486161029581623558e-05
1.000000000000000000e+00,6.400000000000000000e+01,3.991925825307254621e-04,4.004987005194885537e-04,1.535076081774828681e-05
1.000000000000000000e+00,6.500000000000000000e+01,3.825357037242140294e-04,3.858458488602617073e-04,1.579392550075782117e-05
1.000000000000000000e+00,6.600000000000000000e+01,3.676047315292098197e-04,3.687431806016305911e-04,1.606942126742492679e-05
1.000000000000000000e+00,6.700000000000000000e+01,3.503968611893641758e-04,3.534093744277967144e-04,1.630851932773574311e-05
1.000000000000000000e+00,6.800000000000000000e+01,3.349876928737383335e-04,3.359614175135639956e-04,1.638289295545153151e-05
1.000000000000000000e+00,6.900000000000000000e+01,3.176310752784611128e-04,3.203444959167153750e-04,1.643336448503801388e-05
1.000000000000000000e+00,7.000000000000000000e+01,3.021209639036623058e-04,3.029377970941334042e-04,1.632694456526993256e-05
1.000000000000000000e+00,7.100000000000000000e+01,2.849771861479212477e-04,2.873968530320342076e-04,1.621102408773280983e-05
1.000000000000000000e+00,7.200000000000000000e+01,2.696989157281966861e-04,2.703704758528985633e-04,1.594983054442649295e-05
1.000000000000000000e+00,7.300000000000000000e+01,2.530775250590682618e-04,2.552143183956396871e-04,1.569442703046341515e-05
1.000000000000000000e+00,7.400000000000000000e+01,2.383100616672698558e-04,2.388506078206277376e-04,1.530800954515626065e-05
1.000000000000000000e+00,7.500000000000000000e+01,2.224615059687557405e-04,2.243305248061150305e-04,1.494262662313865209e-05
1.000000000000000000e+00,7.600000000000000000e+01,2.084248084209925516e-04,2.088501490337198077e-04,1.446203816049040425e-05
1.000000000000000000e+00,7.700000000000000000e+01,1.935374296477749320e-04,1.951566987868983132e-04,1.401690049724970701e-05
1.000000000000000000e+00,7.800000000000000000e+01,1.803910074264931376e-04,1.807175311929633385e-04,1.347294598775198172e-05
1.000000000000000000e+00,7.900000000000000000e+01,1.665915376722709685e-04,1.679808124763066117e-04,1.297744300184960800e-05
1.000000000000000000e+00,8.000000000000000000e+01,1.544361214227939216e-04,1.546799923332076447e-04,1.239928715989077005e-05
1.000000000000000000e+00,8.100000000000000000e+01,1.417929633524894284e-04,1.429726756000742564e-04,1.188079065609396964e-05
1.000000000000000000e+00,8.200000000000000000e+01,1.306745401106059823e-04,1.308510735992835395e-04,1.129495673056099650e-05
1.000000000000000000e+00,8.300000000000000000e+01,1.192030498913674354e-04,1.201934154438017078e-04,1.077802127776979961e-05
1.000000000000000000e+00,8.400000000000000000e+01,1.091184975550663831e-04,1.092417146046601611e-04,1.020776938589483708e-05
1.000000000000000000e+00,8.500000000000000000e+01,9.878751111957776126e-05,9.960780237277994966e-05,9.713686990830210327e-06
1.000000000000000000e+00,8.600000000000000000e+01,8.969112357340596245e-05,8.977346498629994805e-05,9.178728959065764073e-06
1.000000000000000000e+00,8.700000000000000000e+01,8.043005320144623312e-05,8.109802656997490043e-05,8.725384003101738846e-06
1.000000000000000000e+00,8.800000000000000000e+01,7.224035556720248476e-05,7.229252946087160792e-05,8.241871527912857966e-06
1.000000000000000000e+00,8.900000000000000000e+01,6.394631014562051719e-05,6.447777088790116124e-05,7.843827402537671375e-06
1.000000000000000000e+00,9.000000000000000000e+01,5.655270076212714201e-05,5.658363196968370726e-05,7.424540591049947193e-06
1.000000000000000000e+00,9.100000000000000000e+01,4.909722896352062280e-05,4.950571176591573197e-05,7.093284273527692568e-06
1.000000000000000000e+00,9.200000000000000000e+01,4.236613221507175688e-05,4.238298168451543800e-05,6.747946217892547051e-06
1.000000000000000000e+00,9.300000000000000000e+01,3.560133652773552870e-05,3.589787951137744267e-05,6.492219011991066561e-06
1.000000000000000000e+00,9.400000000000000000e+01,2.938169419108962375e-05,2.938991863968829472e-05,6.227866785244575912e-06
1.000000000000000000e+00,9.500000000000000000e+01,2.314560295724637687e-05,2.333859426943779312e-05,6.054016472093627220e-06
1.000000000000000000e+00,9.600000000000000000e+01,1.727366124690236931e-05,1.727708731723502685e-05,5.875367780676663402e-06
1.000000000000000000e+00,9.700000000000000000e+01,1.139486739589305007e-05,1.148994654369747811e-05,5.787667648299371131e-06
1.000000000000000000e+00,9.800000000000000000e+01,5.698325950303627052e-06,5.699218202660729068e-06,5.697433697946525035e-06
1.000000000000000000e+00,9.900000000000000000e+01,0.000000000000000000e+00,0.000000000000000000e+00,0.000000000000000000e+00
2.000000000000000000e+00,0.000000000000000000e+00,0.000000000000000000e+00,0.000000000000000000e+00,0.000000000000000000e+00
2.000000000000000000e+00,1.000000000000000000e+00,1.033149241685360985e-05,5.208525315792747254e-06,-1.033165864958499307e-05
2.000000000000000000e+00,2.000000000000000000e+00,2.066331729916998615e-05,1.050429369369248019e-05,-1.050429369369248019e-05
2.000000000000000000e+00,3.000000000000000000e+00,3.134007980423857023e-05,1.580106190147377430e-05,-1.067592890791840105e-05
2.000000000000000000e+00,4.000000000000000000e+00,4.201517511500678826e-05,2.135960554285577730e-05,-1.102008578168387634e-05
2.000000000000000000e+00,5.000000000000000000e+00,5.338025136760632291e-05,2.691747425237959567e-05,-1.135920767510757023e-05
2.000000000000000000e+00,6.000000000000000000e+00,6.473359046522192872e-05,3.291169429476285330e-05,-1.187077208691401174e-05
2.000000000000000000e+00,7.000000000000000000e+00,7.712179554143434640e-05,3.889813690593556212e-05,-1.237045409799337759e-05
2.000000000000000000e+00,8.000000000000000000e+00,8.947449866120868391e-05,4.549526820606819176e-05,-1.304201042377944230e-05
2.000000000000000000e+00,9.000000000000000000e+00,1.032058163889932310e-04,5.206919235051251748e-05,-1.369186026181725454e-05
2.000000000000000000e+00,1.000000000000000000e+01,1.168582191848431930e-04,5.942717743466791606e-05,-1.451202323631800681e-05
2.000000000000000000e+00,1.100000000000000000e+01,1.322298628616292446e-04,6.673510642178086976e-05,-1.529748659064662699e-05
2.000000000000000000e+00,1.200000000000000000e+01,1.474531923661364470e-04,7.499819930971298278e-05,-1.625009661701031980e-05
2.000000000000000000e+00,1.300000000000000000e+01,1.647300560956498842e-04,8.316966982941803599e-05,-1.715166219313692543e-05
2.000000000000000000e+00,1.400000000000000000e+01,1.817565167524102978e-04,9.246316828066494147e-05,-1.821493348912280508e-05
2.000000000000000000e+00,1.500000000000000000e+01,2.011599230738954944e-04,1.016052861865463311e-04,-1.920733873079649853e-05
2.000000000000000000e+00,1.600000000000000000e+01,2.201711942140032949e-04,1.120293926831949962e-04,-2.035307215581157181e-05
2.000000000000000000e+00,1.700000000000000000e+01,2.418660673855186380e-04,1.222206003880049697e-04,-2.140463024886236302e-05
2.000000000000000000e+00,1.800000000000000000e+01,2.629804547117280209e-04,1.338435361523744496e-04,-2.259762220997442147e-05
2.000000000000000000e+00,1.900000000000000000e+01,2.870613118054674809e-04,1.451267772870276358e-04,-2.366980786918087415e-05
2.000000000000000000e+00,2.000000000000000000e+01,3.103200704500897692e-04,1.579774157517489005e-04,-2.486760030483332624e-05
2.000000000000000000e+00,2.100000000000000000e+01,3.367965124151341334e-04,1.703530296866991576e-04,-2.591504109731673734e-05
2.000000000000000000e+00,2.200000000000000000e+01,3.621501526447232439e-04,1.844134685994442660e-04,-2.706816138652054049e-05
2.000000000000000000e+00,2.300000000000000000e+01,3.909328351881752144e-04,1.978322997664065750e-04,-2.803917880048013909e-05
2.000000000000000000e+00,2.400000000000000000e+01,4.182285102456835221e-04,2.130309427188257576e-04,-2.909200809674168664e-05
2.000000000000000000e+00,2.500000000000000000e+01,4.491168513816585876e-04,2.273882933429996565e-04,-2.992983366609407495e-05
2.000000000000000000e+00,2.600000000000000000e+01,4.780881775778716720e-04,2.435941453198345341e-04,-3.082221309152143561e-05
2.000000000000000000e+00,2.700000000000000000e+01,5.107612775647014589e-04,2.587253162826634307e-04,-3.146696541698730618e-05
2.000000000000000000e+00,2.800000000000000000e+01,5.410221084118462843e-04,2.757442925640973732e-04,-3.213659812462317262e-05
2.000000000000000000e+00,2.900000000000000000e+01,5.750344738139478041e-04,2.914225226552629301e-04,-3.252804383444181120e-05
2.000000000000000000e+00,3.000000000000000000e+01,6.060781960807299067e-04,3.089966015434440381e-04,-3.291367567261451257e-05
2.000000000000000000e+00,3.100000000000000000e+01,6.408618251591768292e-04,3.249342052722577721e-04,-3.299471137979079769e-05
2.000000000000000000e+00,3.200000000000000000e+01,6.720676188403115021e-04,3.427441977350717214e-04,-3.303997596701695356e-05
2.000000000000000000e+00,3.300000000000000000e+01,7.069417770932107364e-04,3.585975927477828189e-04,-3.276066365697215569e-05
2.000000000000000000e+00,3.400000000000000000e+01,7.375889461542558135e-04,3.762701354206810173e-04,-3.241836639543773952e-05
2.000000000000000000e+00,3.500000000000000000e+01,7.717785098840862154e-04,3.916492259553358665e-04,-3.174024158333812323e-05
2.000000000000000000e+00,3.600000000000000000e+01,8.010694293209320600e-04,4.087683173706788370e-04,-3.097674472535695382e-05
2.000000000000000000e+00,3.700000000000000000e+01,8.337319993348001231e-04,4.232503569373416777e-04,-2.987701123606328023e-05
2.000000000000000000e+00,3.800000000000000000e+01,8.608234517930586204e-04,4.393733563176593611e-04,-2.867628732836828651e-05
2.000000000000000000e+00,3.900000000000000000e+01,8.910845739915366961e-04,4.525209672926364893e-04,-2.715143544750064659e-05
2.000000000000000000e+00,4.000000000000000000e+01,9.151263226880599136e-04,4.671984887346293134e-04,-2.551830143106520281e-05
2.000000000000000000e+00,4.100000000000000000e+01,9.421211768536671017e-04,4.785810087960320493e-04,-2.358665974436843088e-05
2.000000000000000000e+00,4.200000000000000000e+01,9.622996421767967754e-04,4.913796234157801661e-04,-2.154870998707556461e-05
2.000000000000000000e+00,4.300000000000000000e+01,9.852185968278182309e-04,5.005964421108639395e-04,-1.925148422230208919e-05
2.000000000000000000e+00,4.400000000000000000e+01,1.000802610621400954e-03,5.111226200261823364e-04,-1.685932256988902176e-05
2.000000000000000000e+00,4.500000000000000000e+01,1.018937241967596274e-03,5.178267435926078291e-04,-1.425979633321223551e-05
2.000000000000000000e+00,4.600000000000000000e+01,1.029322203287825425e-03,5.257501109984557197e-04,-1.158532711349096259e-05
2.000000000000000000e+00,4.700000000000000000e+01,1.042107896194578200e-03,5.296699339932612856e-04,-8.766093734850289101e-06
2.000000000000000000e+00,4.800000000000000000e+01,1.046854390757526003e-03,5.347437676781220933e-04,-5.898855004519715922e-06
2.000000000000000000e+00,4.900000000000000000e+01,1.053905606203617631e-03,5.357010057105619869e-04,-2.957193403084175734e-06
2.000000000000000000e+00,5.000000000000000000e+01,1.052768777563694354e-03,5.377779936072572603e-04,1.029101719856109765e-09
2.000000000000000000e+00,5.100000000000000000e+01,1.053903548000177919e-03,5.356999787361211695e-04,2.959267327128502038e-06
2.000000000000000000e+00,5.200000000000000000e+01,1.046850242909437350e-03,5.347416543472154450e-04,5.901064146175238716e-06
2.000000000000000000e+00,5.300000000000000000e+01,1.042101419707827442e-03,5.296667020519455838e-04,8.768471159871895140e-06
2.000000000000000000e+00,5.400000000000000000e+01,1.029313300589693560e-03,5.257455755656256389e-04,1.158800579724298709e-05
2.000000000000000000e+00,5.500000000000000000e+01,1.018925408113341468e-03,5.178208368376248025e-04,1.426281430300308569e-05
2.000000000000000000e+00,5.600000000000000000e+01,1.000787671983687389e-03,5.111150108763863002e-04,1.686284072494623285e-05
2.000000000000000000e+00,5.700000000000000000e+01,9.851997266634490019e-04,5.005870203338974719e-04,1.925554914832802505e-05
2.000000000000000000e+00,5.800000000000000000e+01,9.622765736870313386e-04,4.913678756283831016e-04,2.155352690007093916e-05
2.000000000000000000e+00,5.900000000000000000e+01,9.420926728633071236e-04,4.785667716856701020e-04,2.359228780430931574e-05
2.000000000000000000e+00,6.000000000000000000e+01,9.150919980784127071e-04,4.671810125921500314e-04,2.552500951319246333e-05
2.000000000000000000e+00,6.100000000000000000e+01,8.910426538369221969e-04,4.525000206882912436e-04,2.715929985583202030e-05
2.000000000000000000e+00,6.200000000000000000e+01,8.607733983667486665e-04,4.393478778105864603e-04,2.868566391353805176e-05
2.000000000000000000e+00,6.300000000000000000e+01,8.336713260098460934e-04,4.232200269571185884e-04,2.988799866388577951e-05
2.000000000000000000e+00,6.400000000000000000e+01,8.009974010389771075e-04,4.087316614112040860e-04,3.098981414466133941e-05
2.000000000000000000e+00,6.500000000000000000e+01,7.716916977205234146e-04,3.916058105957136008e-04,3.175551991785796266e-05
2.000000000000000000e+00,6.600000000000000000e+01,7.374863612032611822e-04,3.762179402513100043e-04,3.243647443246499293e-05
2.000000000000000000e+00,6.700000000000000000e+01,7.068187488555934287e-04,3.585360384066280407e-04,3.278176308806659547e-05
2.000000000000000000e+00,6.800000000000000000e+01,6.719228350271279912e-04,3.426705469939076310e-04,3.306487851108133938e-05
2.000000000000000000e+00,6.900000000000000000e+01,6.406889918334307500e-04,3.248476937807029874e-04,3.302362041943059144e-05
2.000000000000000000e+00,7.000000000000000000e+01,6.058755941882668083e-04,3.088935588063900211e-04,3.294764288468116737e-05
2.000000000000000000e+00,7.100000000000000000e+01,5.747937060640684152e-04,2.913019530331836695e-04,3.256732124123484090e-05
2.000000000000000000e+00,7.200000000000000000e+01,5.407409517057971265e-04,2.756013221788934740e-04,3.218253463639452047e-05
2.000000000000000000e+00,7.300000000000000000e+01,5.104286367912793743e-04,2.585586648499642944e-04,3.151986803227082570e-05
2.000000000000000000e+00,7.400000000000000000e+01,4.777012156412554751e-04,2.433974033128346952e-04,3.088379358952465662e-05
2.000000000000000000e+00,7.500000000000000000e+01,4.486610496122300611e-04,2.271598364013567822e-04,3.000045878690792991e-05
2.000000000000000000e+00,7.600000000000000000e+01,4.177002980674396153e-04,2.127624229117044019e-04,2.917382601921671734e-05
2.000000000000000000e+00,7.700000000000000000e+01,3.903133975737966264e-04,1.975216852731350933e-04,2.813261784075646917e-05
2.000000000000000000e+00,7.800000000000000000e+01,3.614350623859266770e-04,1.840499923175931531e-04,2.717588631059170146e-05
2.000000000000000000e+00,7.900000000000000000e+01,3.359616249526132235e-04,1.699341887067845223e-04,2.603753885975569377e-05
2.000000000000000000e+00,8.000000000000000000e+01,3.093599846664152895e-04,1.574894592004419088e-04,2.500813687623235537e-05
2.000000000000000000e+00,8.100000000000000000e+01,2.859453512001485127e-04,1.445666731153164128e-04,2.382891873392410523e-05
2.000000000000000000e+00,8.200000000000000000e+01,2.617021471985670790e-04,1.331938982767831537e-04,2.277926015627254857e-05
2.000000000000000000e+00,8.300000000000000000e+01,2.403868308876034156e-04,1.214778236798957087e-04,2.160935899462337840e-05
2.000000000000000000e+00,8.400000000000000000e+01,2.184834292093203222e-04,1.111717186987164761e-04,2.058561307102175814e-05
2.000000000000000000e+00,8.500000000000000000e+01,1.992156047455598993e-04,1.006285187805819147e-04,1.946824961836021305e-05
2.000000000000000000e+00,8.600000000000000000e+01,1.795469299725998961e-04,9.134036056909380474e-05,1.850977580280504923e-05
2.000000000000000000e+00,8.700000000000000000e+01,1.621960531399498009e-04,8.189605863128182617e-05,1.748093552542834012e-05
2.000000000000000000e+00,8.800000000000000000e+01,1.445850589217432158e-04,7.354076837021107562e-05,1.662025568207373919e-05
2.000000000000000000e+00,8.900000000000000000e+01,1.289555417758023225e-04,6.508861197542883969e-05,1.570889749118790067e-05
2.000000000000000000e+00,9.000000000000000000e+01,1.131672639393674145e-04,5.755161113130568184e-05,1.497205912198542926e-05
2.000000000000000000e+00,9.100000000000000000e+01,9.901142353183146395e-05,4.995900444594318017e-05,1.420065028516826925e-05
2.000000000000000000e+00,9.200000000000000000e+01,8.476596336903087601e-05,4.310252734252392515e-05,1.360783225453828931e-05
2.000000000000000000e+00,9.300000000000000000e+01,7.179575902275488533e-05,3.621728119357050586e-05,1.299306304482714328e-05
2.000000000000000000e+00,9.400000000000000000e+01,5.877983727937658944e-05,2.988597570645410749e-05,1.255928524193964955e-05
2.000000000000000000e+00,9.500000000000000000e+01,4.667718853887558623e-05,2.354176816358146386e-05,1.211283132245326787e-05
2.000000000000000000e+00,9.600000000000000000e+01,3.455417463447005370e-05,1.756754887010280648e-05,1.184864772574031501e-05
2.000000000000000000e+00,9.700000000000000000e+01,2.297989308739495622e-05,1.158861325900110307e-05,1.157786911457429778e-05
2.000000000000000000e+00,9.800000000000000000e+01,1.139843640532145814e-05,5.794842392417521620e-06,1.148994654369747811e-05
2.000000000000000000e+00,9.900000000000000000e+01,0.000000000000000000e+00,0.000000000000000000e+00,0.000000000000000000e+00
3.000000000000000000e+00,0.000000000000000000e+00,0.000000000000000000e+00,0.000000000000000000e+00,0.000000000000000000e+00
3.000000000000000000e+00,1.000000000000000000e+00,1.553985149991497558e-05,5.337212830028254128e-06,-1.567003990211928512e-05
3.000000000000000000e+00,2.000000000000000000e+00,3.134007980423857023e-05,1.067592890791840444e-05,-1.580106190147377430e-05
3.000000000000000000e+00,3.000000000000000000e+00,4.714197530286252079e-05,1.619252467919155632e-05,-1.619252467919154954e-05
3.000000000000000000e+00,4.000000000000000000e+00,6.372512916262166932e-05,2.171229846006635187e-05,-1.658080944730768450e-05
3.000000000000000000e+00,5.000000000000000000e+00,8.030359419747788979e-05,2.758792721757375948e-05,-1.722958543490932509e-05
3.000000000000000000e+00,6.000000000000000000e+00,9.818430003244031949e-05,3.346437078812528428e-05,-1.786704461405553619e-05
3.000000000000000000e+00,7.000000000000000000e+00,1.160376834255889622e-04,3.987464024610149475e-05,-1.876461691226984291e-05
3.000000000000000000e+00,8.000000000000000000e+00,1.357135338569800053e-04,4.627649423722032514e-05,-1.963839138994203265e-05
3.000000000000000000e+00,9.000000000000000000e+00,1.553144662054730275e-04,5.338966221114002219e-05,-2.077081228308778991e-05
3.000000000000000000e+00,1.000000000000000000e+01,1.772551584231555851e-04,6.047530137395670758e-05,-2.186233008203826932e-05
3.000000000000000000e+00,1.100000000000000000e+01,1.990391263695495661e-04,6.844824549284093257e-05,-2.320908180997676264e-05
3.000000000000000000e+00,1.200000000000000000e+01,2.236733220431091104e-04,7.636142480458481545e-05,-2.449290054594741939e-05
3.000000000000000000e+00,1.300000000000000000e+01,2.480249274614444049e-04,8.533473429195814980e-05,-2.602560838824244946e-05
3.000000000000000000e+00,1.400000000000000000e+01,2.757245388195940093e-04,9.419945873049029056e-05,-2.746817469484306605e-05
3.000000000000000000e+00,1.500000000000000000e+01,3.029612768511305370e-04,1.042915840238799652e-04,-2.914932434992396882e-05
3.000000000000000000e+00,1.600000000000000000e+01,3.340231875194419470e-04,1.142060870512270096e-04,-3.070781692252302539e-05
3.000000000000000000e+00,1.700000000000000000e+01,3.643769106961765878e-04,1.255065984389667577e-04,-3.248966093951510684e-05
3.000000000000000000e+00,1.800000000000000000e+01,3.990025093984721606e-04,1.365365395786011823e-04,-3.411111381043855739e-05
3.000000000000000000e+00,1.900000000000000000e+01,4.325991383170537025e-04,1.490986836237809439e-04,-3.593497827616916373e-05
3.000000000000000000e+00,2.000000000000000000e+01,4.708724659508104881e-04,1.612698208082239781e-04,-3.755590232625360763e-05
3.000000000000000000e+00,2.100000000000000000e+01,5.077109429695609178e-04,1.751027179517166646e-04,-3.935212004974232179e-05
3.000000000000000000e+00,2.200000000000000000e+01,5.495767060502951317e-04,1.883934686223097637e-04,-4.089884786399639212e-05
3.000000000000000000e+00,2.300000000000000000e+01,5.895086386975537020e-04,2.034544578289697162e-04,-4.258754155854867435e-05
3.000000000000000000e+00,2.400000000000000000e+01,6.347517891673924804e-04,2.177889226430550923e-04,-4.397750674849277988e-05
3.000000000000000000e+00,2.500000000000000000e+01,6.774636521945392618e-04,2.339767151248399305e-04,-4.547041810342480330e-05
3.000000000000000000e+00,2.600000000000000000e+01,7.256926253742420870e-04,2.492188828647391588e-04,-4.661453811133408134e-05
3.000000000000000000e+00,2.700000000000000000e+01,7.706927284172074245e-04,2.663683172244133042e-04,-4.781803950073529232e-05
3.000000000000000000e+00,2.800000000000000000e+01,8.213287043757126716e-04,2.823182771125399898e-04,-4.862429480983153623e-05
3.000000000000000000e+00,2.900000000000000000e+01,8.679413180368704970e-04,3.001975482465178311e-04,-4.944362515466889764e-05
3.000000000000000000e+00,3.000000000000000000e+01,9.202159546850504669e-04,3.165905802058904426e-04,-4.982181504661014173e-05
3.000000000000000000e+00,3.100000000000000000e+01,9.675849481300907804e-04,3.349018165567520895e-04,-5.016644981345171148e-05
3.000000000000000000e+00,3.200000000000000000e+01,1.020548854311953890e-03,3.514111835000906518e-04,-5.003395815341489961e-05
3.000000000000000000e+00,3.300000000000000000e+01,1.067652864436920580e-03,3.697951451004372189e-04,-4.982386216106080620e-05
3.000000000000000000e+00,3.400000000000000000e+01,1.120196578634075502e-03,3.860392499024779649e-04,-4.911209677449697181e-05
3.000000000000000000e+00,3.500000000000000000e+01,1.165877057985914523e-03,4.040846928800084434e-04,-4.828443262507085918e-05
3.000000000000000000e+00,3.600000000000000000e+01,1.216765443884217221e-03,4.196389719295716110e-04,-4.694542853201603017e-05
3.000000000000000000e+00,3.700000000000000000e+01,1.259767915049946584e-03,4.368968670947909194e-04,-4.546112767782567281e-05
3.000000000000000000e+00,3.800000000000000000e+01,1.307687699239868566e-03,4.513103751441297504e-04,-4.347365649260206966e-05
3.000000000000000000e+00,3.900000000000000000e+01,1.346715228035150723e-03,4.673126932109988039e-04,-4.132313644179645695e-05
3.000000000000000000e+00,4.000000000000000000e+01,1.390333972123461480e-03,4.801288175058183788e-04,-3.869757601789361977e-05
3.000000000000000000e+00,4.100000000000000000e+01,1.424110380070937962e-03,4.944110419872399043e-04,-3.590484107921746316e-05
3.000000000000000000e+00,4.200000000000000000e+01,1.462143654281896406e-03,5.051912216678263422e-04,-3.268606464823184139e-05
3.000000000000000000e+00,4.300000000000000000e+01,1.489482509367401645e-03,5.173171902869924286e-04,-2.931048902961492803e-05
3.000000000000000000e+00,4.400000000000000000e+01,1.520764632341126263e-03,5.256659890905568833e-04,-2.557815560289282593e-05
3.000000000000000000e+00,4.500000000000000000e+01,1.540638820573187297e-03,5.352531843490640831e-04,-2.171343208401963279e-05
3.000000000000000000e+00,4.600000000000000000e+01,1.564191496509165528e-03,5.408426647640410517e-04,-1.757930439327717431e-05
3.000000000000000000e+00,4.700000000000000000e+01,1.575797429359741646e-03,5.475857694805514979e-04,-1.334934125689032393e-05
3.000000000000000000e+00,4.800000000000000000e+01,1.590890179022946176e-03,5.501769356299022074e-04,-8.951602298722712708e-06
3.000000000000000000e+00,4.900000000000000000e+01,1.593700633957187071e-03,5.538674211179074602e-04,-4.503529986712496470e-06
3.000000000000000000e+00,5.000000000000000000e+01,1.599897238996371169e-03,5.533266012004984906e-04,1.534728637795149120e-09
3.000000000000000000e+00,5.100000000000000000e+01,1.593697564499911481e-03,5.538663690033552960e-04,4.506688207063860863e-06
3.000000000000000000e+00,5.200000000000000000e+01,1.590883862582243447e-03,5.501748151460762433e-04,8.954897390938288543e-06
3.000000000000000000e+00,5.300000000000000000e+01,1.575787769718034904e-03,5.475824586239752935e-04,1.335296081222047890e-05
3.000000000000000000e+00,5.400000000000000000e+01,1.564177940957802489e-03,5.408381130780854978e-04,1.758330147020876599e-05
3.000000000000000000e+00,5.500000000000000000e+01,1.540621166777617372e-03,5.352471340468982356e-04,2.171802519705288374e-05
3.000000000000000000e+00,5.600000000000000000e+01,1.520741890563696722e-03,5.256583503421791235e-04,2.558340797609054851e-05
3.000000000000000000e+00,5.700000000000000000e+01,1.489454350825436275e-03,5.173075409703252296e-04,2.931667315310339684e-05
3.000000000000000000e+00,5.800000000000000000e+01,1.462108544257489928e-03,5.051794236504494884e-04,3.269325964793691995e-05
3.000000000000000000e+00,5.900000000000000000e+01,1.424067831529562435e-03,4.943964634896813419e-04,3.591340016164399403e-05
3.000000000000000000e+00,6.000000000000000000e+01,1.390281743934201940e-03,4.801112589554324805e-04,3.870760069500374205e-05
3.000000000000000000e+00,6.100000000000000000e+01,1.346652630139554951e-03,4.672912480505932989e-04,4.133509259533557027e-05
3.000000000000000000e+00,6.200000000000000000e+01,1.307611558743530800e-03,4.512847644135613507e-04,4.348767543280358545e-05
3.000000000000000000e+00,6.300000000000000000e+01,1.259677279273947780e-03,4.368658204587434106e-04,4.547782669519855568e-05
3.000000000000000000e+00,6.400000000000000000e+01,1.216655905353133688e-03,4.196021075724957637e-04,4.696497717915327445e-05
3.000000000000000000e+00,6.500000000000000000e+01,1.165747324915641231e-03,4.040402586605382337e-04,4.830764666065192996e-05
3.000000000000000000e+00,6.600000000000000000e+01,1.120040612031829828e-03,3.859867314012675136e-04,4.913919345651048681e-05
3.000000000000000000e+00,6.700000000000000000e+01,1.067468938002620257e-03,3.697321551209273370e-04,4.985591258513811640e-05
3.000000000000000000e+00,6.800000000000000000e+01,1.020328786861553596e-03,3.513370382747356088e-04,5.007123758137661199e-05
3.000000000000000000e+00,6.900000000000000000e+01,9.673264628398670333e-04,3.348132981964889259e-04,5.021035267255562380e-05
3.000000000000000000e+00,7.000000000000000000e+01,9.199080815164423480e-04,3.164867913175399691e-04,4.987268531278922327e-05
3.000000000000000000e+00,7.100000000000000000e+01,8.675810922142885868e-04,3.000741942365056777e-04,4.950326071522935696e-05
3.000000000000000000e+00,7.200000000000000000e+01,8.209015600859836340e-04,2.821741949795274771e-04,4.869311872764586812e-05
3.000000000000000000e+00,7.300000000000000000e+01,7.701948547589968505e-04,2.661978307423298255e-04,4.789834589652219388e-05
3.000000000000000000e+00,7.400000000000000000e+01,7.251048682929392463e-04,2.490205041793899397e-04,4.670683799376377284e-05
3.000000000000000000e+00,7.500000000000000000e+01,6.767811787714693049e-04,2.337430138459012743e-04,4.557760702426894538e-05
3.000000000000000000e+00,7.600000000000000000e+01,6.339496542444013555e-04,2.175180209386057891e-04,4.410018928871207956e-05
3.000000000000000000e+00,7.700000000000000000e+01,5.885808001940451457e-04,2.031367227580235704e-04,4.272933109136095586e-05
3.000000000000000000e+00,7.800000000000000000e+01,5.484909920616794438e-04,1.880265640974896583e-04,4.106044255410256629e-05
3.000000000000000000e+00,7.900000000000000000e+01,5.064599150858400132e-04,1.746742772128387995e-04,3.953797611900086587e-05
3.000000000000000000e+00,8.000000000000000000e+01,4.694150398236777121e-04,1.607769826464590553e-04,3.776680275135887955e-05
3.000000000000000000e+00,8.100000000000000000e+01,4.309263095831222540e-04,1.485257285141841914e-04,3.617635157975271115e-05
3.000000000000000000e+00,8.200000000000000000e+01,3.970623366641722897e-04,1.358800227126368996e-04,3.438380616598170738e-05
3.000000000000000000e+00,8.300000000000000000e+01,3.621586972511588393e-04,1.247467395796646151e-04,3.280020085583647727e-05
3.000000000000000000e+00,8.400000000000000000e+01,3.314619349524993352e-04,1.133388177297280249e-04,3.105707428520862435e-05
3.000000000000000000e+00,8.500000000000000000e+01,3.000445486807415906e-04,1.032922699396454110e-04,2.954504512045288164e-05
3.000000000000000000e+00,8.600000000000000000e+01,2.723718447115935719e-04,9.306339987821148942e-05,2.791118910836585935e-05
3.000000000000000000e+00,8.700000000000000000e+01,2.442221704640098719e-04,8.403157369589970085e-05,2.652497620198446119e-05
3.000000000000000000e+00,8.800000000000000000e+01,2.193218923076246496e-04,7.488587341326205580e-05,2.504931818376584444e-05
3.000000000000000000e+00,8.900000000000000000e+01,1.941235340964781830e-04,6.676329819642361956e-05,2.383298464144307193e-05
3.000000000000000000e+00,9.000000000000000000e+01,1.716559230247385057e-04,5.857519613416698671e-05,2.255414812053559994e-05
3.000000000000000000e+00,9.100000000000000000e+01,1.490152378554069831e-04,5.122979186194215426e-05,2.154236806230944927e-05
3.000000000000000000e+00,9.200000000000000000e+01,1.285711869001196072e-04,4.385084204606656979e-05,2.048966947026522136e-05
3.000000000000000000e+00,9.300000000000000000e+01,1.080358989148765404e-04,3.713005448175099127e-05,1.970877064806088422e-05
3.000000000000000000e+00,9.400000000000000000e+01,8.915364560399783873e-05,3.039493482897618246e-05,1.890337981523361791e-05
3.000000000000000000e+00,9.500000000000000000e+01,7.022913928440930459e-05,2.413106616842438401e-05,1.837244330844492823e-05
3.000000000000000000e+00,9.600000000000000000e+01,5.240875898710798227e-05,1.786272674059362367e-05,1.782852268525702419e-05
3.000000000000000000e+00,9.700000000000000000e+01,3.457209391389525621e-05,1.187749513757847505e-05,1.756037412598465599e-05
3.000000000000000000e+00,9.800000000000000000e+01,1.728801073513867029e-05,5.891538108008257730e-06,1.728604695694762811e-05
3.000000000000000000e+00,9.900000000000000000e+01,0.000000000000000000e+00,0.000000000000000000e+00,0.000000000000000000e+00
4.000000000000000000e+00,0.000000000000000000e+00,0.000000000000000000e+00,0.000000000000000000e+00,0.000000000000000000e+00
4.000000000000000000e+00,1.000000000000000000e+00,2.100591807691011811e-05,5.464397096401863124e-06,-2.100758755750339752e-05
4.000000000000000000e+00,2.000000000000000000e+00,4.201517511500679503e-05,1.102008578168388312e-05,-2.135960554285578407e-05
4.000000000000000000e+00,3.000000000000000000e+00,6.372512916262168287e-05,1.658080944730769128e-05,-2.171229846006634848e-05
4.000000000000000000e+00,4.000000000000000000e+00,8.543977203513949199e-05,2.241548832006608628e-05,-2.241548832006607950e-05
4.000000000000000000e+00,5.000000000000000000e+00,1.085561058027538419e-04,2.825756536972378577e-05,-2.311128000316650265e-05
4.000000000000000000e+00,6.000000000000000000e+00,1.316623320414724973e-04,3.455639932742557712e-05,-2.415748511544174701e-05
4.000000000000000000e+00,7.000000000000000000e+00,1.568710760336373359e-04,4.085955905312482777e-05,-2.518257754708841845e-05
4.000000000000000000e+00,8.000000000000000000e+00,1.820274871356493342e-04,4.780216967768603266e-05,-2.655703238881796974e-05
4.000000000000000000e+00,9.000000000000000000e+00,2.099851408112732754e-04,5.473766088287055210e-05,-2.789066739855363699e-05
4.000000000000000000e+00,1.000000000000000000e+01,2.378088219327566082e-04,6.249445889214123406e-05,-2.957060651801891719e-05
4.000000000000000000e+00,1.100000000000000000e+01,2.691263538473111097e-04,7.022114937104125616e-05,-3.118361002127473486e-05
4.000000000000000000e+00,1.200000000000000000e+01,3.001760419753060779e-04,7.894880072265779251e-05,-3.313658541612753703e-05
4.000000000000000000e+00,1.300000000000000000e+01,3.353995246795661838e-04,8.760838380333953851e-05,-3.498969611904240054e-05
4.000000000000000000e+00,1.400000000000000000e+01,3.701554342133908789e-04,9.744428039654717843e-05,-3.717178322104462045e-05
4.000000000000000000e+00,1.500000000000000000e+01,4.097430911216554247e-04,1.071555041272562430e-04,-3.921396705153321754e-05
4.000000000000000000e+00,1.600000000000000000e+01,4.485833683164573140e-04,1.182112154166636299e-04,-4.156808657089836436e-05
4.000000000000000000e+00,1.700000000000000000e+01,4.928792642634521534e-04,1.290631667380338151e-04,-4.373508277623653576e-05
4.000000000000000000e+00,1.800000000000000000e+01,5.360535338689303856e-04,1.414169794565284179e-04,-4.618970739478860761e-05
4.000000000000000000e+00,1.900000000000000000e+01,5.852586790530293686e-04,1.534615968212710605e-04,-4.840308909880366994e-05
4.000000000000000000e+00,2.000000000000000000e+01,6.328597120665377255e-04,1.671504036262695301e-04,-5.087163463276904701e-05
4.000000000000000000e+00,2.100000000000000000e+01,6.870019483185674626e-04,1.803945526896337049e-04,-5.303868891140252296e-05
4.000000000000000000e+00,2.200000000000000000e+01,7.389370898893427714e-04,1.954055205628579058e-04,-5.541990126377359209e-05
4.000000000000000000e+00,2.300000000000000000e+01,7.978417508461146468e-04,2.098031402841072984e-04,-5.743463282122546762e-05
4.000000000000000000e+00,2.400000000000000000e+01,8.538063555317937066e-04,2.260657647554015952e-04,-5.961426539261190094e-05
4.000000000000000000e+00,2.500000000000000000e+01,9.170702816313384487e-04,2.415107616485657875e-04,-6.135979388777814151e-05
4.000000000000000000e+00,2.600000000000000000e+01,9.765259433073499896e-04,2.588900763266378910e-04,-6.321381519109480927e-05
4.000000000000000000e+00,2.700000000000000000e+01,1.043497912013528067e-03,2.752107926377104206e-04,-6.456635966478813712e-05
4.000000000000000000e+00,2.800000000000000000e+01,1.105658662636926264e-03,2.935026318105307696e-04,-6.596582914672769957e-05
4.000000000000000000e+00,2.900000000000000000e+01,1.175429570306983466e-03,3.104588130123780705e-04,-6.680034692779226405e-05
4.000000000000000000e+00,3.000000000000000000e+01,1.239259356492510792e-03,3.293880895046204151e-04,-6.761794398284877092e-05
4.000000000000000000e+00,3.100000000000000000e+01,1.310665458272681008e-03,3.466712972487698708e-04,-6.781531467399100691e-05
4.000000000000000000e+00,3.200000000000000000e+01,1.374889985840492806e-03,3.658942267953689065e-04,-6.793330451070208297e-05
4.000000000000000000e+00,3.300000000000000000e+01,1.446532067294085174e-03,3.831325542513979278e-04,-6.738873005935946871e-05
4.000000000000000000e+00,3.400000000000000000e+01,1.509667445959211743e-03,4.022436020155009716e-04,-6.670791417500896402e-05
4.000000000000000000e+00,3.500000000000000000e+01,1.579947895644103102e-03,4.190113237326481685e-04,-6.533996361043176940e-05
4.000000000000000000e+00,3.600000000000000000e+01,1.640347373180075282e-03,4.375553483115676929e-04,-6.378891894013942986e-05
4.000000000000000000e+00,3.700000000000000000e+01,1.707525733524381962e-03,4.533877643681206385e-04,-6.154841445062141959e-05
4.000000000000000000e+00,3.800000000000000000e+01,1.763444202081318121e-03,4.708773879720120183e-04,-5.909211344457617095e-05
4.000000000000000000e+00,3.900000000000000000e+01,1.825709960413534304e-03,4.852906129014105969e-04,-5.596987780918927496e-05
4.000000000000000000e+00,4.000000000000000000e+01,1.875383957699696671e-03,5.012282784494505013e-04,-5.261665020730630325e-05
4.000000000000000000e+00,4.100000000000000000e+01,1.930943260828146910e-03,5.137431199792824674e-04,-4.864906390637639428e-05
4.000000000000000000e+00,4.200000000000000000e+01,1.972682085512449460e-03,5.276466639510945123e-04,-4.445485828682808893e-05
4.000000000000000000e+00,4.300000000000000000e+01,2.019852977401803088e-03,5.378151082787227663e-04,-3.972625164503263036e-05
4.000000000000000000e+00,4.400000000000000000e+01,2.052134588802514720e-03,5.492450705847164204e-04,-3.479531663196067624e-05
4.000000000000000000e+00,4.500000000000000000e+01,2.089443610665724441e-03,5.566773399490503515e-04,-2.943647200669640383e-05
4.000000000000000000e+00,4.600000000000000000e+01,2.111007532815907528e-03,5.652637574692858475e-04,-2.391791224497837737e-05
4.000000000000000000e+00,4.700000000000000000e+01,2.137279435155681195e-03,5.696535435350013384e-04,-1.810036460071144486e-05
4.000000000000000000e+00,4.800000000000000000e+01,2.147208262017330418e-03,5.751197407670916766e-04,-1.218050664187567828e-05
4.000000000000000000e+00,4.900000000000000000e+01,2.161640448439432552e-03,5.762651419306667223e-04,-6.106858973680458907e-06
4.000000000000000000e+00,5.000000000000000000e+01,2.159421979964691336e-03,5.784461216322997566e-04,2.081216272020389169e-09
4.000000000000000000e+00,5.100000000000000000e+01,2.161636286006888511e-03,5.762640809307253888e-04,6.111053381550749300e-06
4.000000000000000000e+00,5.200000000000000000e+01,2.147199873201589837e-03,5.751175575460789561e-04,1.218497452555524115e-05
4.000000000000000000e+00,5.300000000000000000e+01,2.137266336955778029e-03,5.696502042197937408e-04,1.810517322786264066e-05
4.000000000000000000e+00,5.400000000000000000e+01,2.110989526745864556e-03,5.652590714390985909e-04,2.392333037432004504e-05
4.000000000000000000e+00,5.500000000000000000e+01,2.089419676207137939e-03,5.566712359297033017e-04,2.944257703890946001e-05
4.000000000000000000e+00,5.600000000000000000e+01,2.052104372668045636e-03,5.492372071776492224e-04,3.480243380151923881e-05
4.000000000000000000e+00,5.700000000000000000e+01,2.019814808604099461e-03,5.378053695547753768e-04,3.973447584005771437e-05
4.000000000000000000e+00,5.800000000000000000e+01,1.972635420987930207e-03,5.276345204096211279e-04,4.446460438071488108e-05
4.000000000000000000e+00,5.900000000000000000e+01,1.930885599842669699e-03,5.137283996671725920e-04,4.866045249932626944e-05
4.000000000000000000e+00,6.000000000000000000e+01,1.875314515989277668e-03,5.012102079277668898e-04,5.263022495228045217e-05
4.000000000000000000e+00,6.100000000000000000e+01,1.825625149938108795e-03,4.852689481450881206e-04,5.598579439770315011e-05
4.000000000000000000e+00,6.200000000000000000e+01,1.763342927193871368e-03,4.708510336226714825e-04,5.911109150538793999e-05
4.000000000000000000e+00,6.300000000000000000e+01,1.707402966927332915e-03,4.533563828917982650e-04,6.157065550495136649e-05
4.000000000000000000e+00,6.400000000000000000e+01,1.640201616183968635e-03,4.375174175817837189e-04,6.381537594286651634e-05
4.000000000000000000e+00,6.500000000000000000e+01,1.579772215041599882e-03,4.189663850726762194e-04,6.537089608908621275e-05
4.000000000000000000e+00,6.600000000000000000e+01,1.509459824005796209e-03,4.021895690013016500e-04,6.674457797207588965e-05
4.000000000000000000e+00,6.700000000000000000e+01,1.446283059097448103e-03,3.830688124010780222e-04,6.743145621459850029e-05
4.000000000000000000e+00,6.800000000000000000e+01,1.374596911576599209e-03,3.658179483136682038e-04,6.798373543551975047e-05
4.000000000000000000e+00,6.900000000000000000e+01,1.310315588226408602e-03,3.465816694129770842e-04,6.787386737662623112e-05
4.000000000000000000e+00,7.000000000000000000e+01,1.238849176823346747e-03,3.292813187247388288e-04,6.768674684466441556e-05
4.000000000000000000e+00,7.100000000000000000e+01,1.174942094537079771e-03,3.103338376157715409e-04,6.687991757924733292e-05
4.000000000000000000e+00,7.200000000000000000e+01,1.105089341664852081e-03,2.933544120958343554e-04,6.605889813057037267e-05
4.000000000000000000e+00,7.300000000000000000e+01,1.042824298275939025e-03,2.750379589604375909e-04,6.467355883240836307e-05
4.000000000000000000e+00,7.400000000000000000e+01,9.757422240000353545e-04,2.586859977172272841e-04,6.333861048595320785e-05
4.000000000000000000e+00,7.500000000000000000e+01,9.161470773040326096e-04,2.412736938642525320e-04,6.150294202769208051e-05
4.000000000000000000e+00,7.600000000000000000e+01,8.527363399446511935e-04,2.257870667068163115e-04,5.978011710709442124e-05
4.000000000000000000e+00,7.700000000000000000e+01,7.965868430898437672e-04,2.094806207228639035e-04,5.762407468187260001e-05
4.000000000000000000e+00,7.800000000000000000e+01,7.374881905809059935e-04,1.950280276616582595e-04,5.563833185577647233e-05
4.000000000000000000e+00,7.900000000000000000e+01,6.853101793782908225e-04,1.799593734006218267e-04,5.328712031078629676e-05
4.000000000000000000e+00,8.000000000000000000e+01,6.309139499593334000e-04,1.666432866209339742e-04,5.115668557488696347e-05
4.000000000000000000e+00,8.100000000000000000e+01,5.829968082285168956e-04,1.528792355823243437e-04,4.872587866774626087e-05
4.000000000000000000e+00,8.200000000000000000e+01,5.334621926238408782e-04,1.407413427053975073e-04,4.655824909079213847e-05
4.000000000000000000e+00,8.300000000000000000e+01,4.898803100469326186e-04,1.282902941963977458e-04,4.415056397753225315e-05
4.000000000000000000e+00,8.400000000000000000e+01,4.451610646687763719e-04,1.173185243979682903e-04,4.204008271104094866e-05
4.000000000000000000e+00,8.500000000000000000e+01,4.058001446248507213e-04,1.061383433700603099e-04,3.974366746987674850e-05
4.000000000000000000e+00,8.600000000000000000e+01,3.656737297290228749e-04,9.627465981982866422e-05,3.777047204655075937e-05
4.000000000000000000e+00,8.700000000000000000e+01,3.302592005317492026e-04,8.628096286084340491e-05,3.565846199037777373e-05
4.000000000000000000e+00,8.800000000000000000e+01,2.943568057482673275e-04,7.742925544833733525e-05,3.388853118154982048e-05
4.000000000000000000e+00,8.900000000000000000e+01,2.624821381686495616e-04,6.850351126283665023e-05,3.201957477028296976e-05
4.000000000000000000e+00,9.000000000000000000e+01,2.303176562077013879e-04,6.053709647222522104e-05,3.050556545646689456e-05
4.000000000000000000e+00,9.100000000000000000e+01,2.014710072557157725e-04,5.253412482159183295e-05,2.892500437326868618e-05
4.000000000000000000e+00,9.200000000000000000e+01,1.724676474611640156e-04,4.530253465490573749e-05,2.770756963472945230e-05
4.000000000000000000e+00,9.300000000000000000e+01,1.460558679862568679e-04,3.805715985839069004e-05,2.644897026191753061e-05
4.000000000000000000e+00,9.400000000000000000e+01,1.195697069373289544e-04,3.139206471767066916e-05,2.555827355526625681e-05
4.000000000000000000e+00,9.500000000000000000e+01,9.493932087572435426e-05,2.472483494054625590e-05,2.464503941083582666e-05
4.000000000000000000e+00,9.600000000000000000e+01,7.027962811565730103e-05,1.844508750542294526e-05,2.410221875658622397e-05
4.000000000000000000e+00,9.700000000000000000e+01,4.673488336255190632e-05,1.216710244271092080e-05,2.354905774715966202e-05
4.000000000000000000e+00,9.800000000000000000e+01,2.318151262133797360e-05,6.083006056835692850e-06,2.336744168127595316e-05
4.000000000000000000e+00,9.900000000000000000e+01,0.000000000000000000e+00,0.000000000000000000e+00,0.000000000000000000e+00
5.000000000000000000e+00,0.000000000000000000e+00,0.000000000000000000e+00,0.000000000000000000e+00,0.000000000000000000e+00
5.000000000000000000e+00,1.000000000000000000e+00,2.646864569271870183e-05,5.677496683002247385e-06,-2.669012568380316823e-05
5.000000000000000000e+00,2.000000000000000000e+00,5.338025136760633646e-05,1.135920767510756685e-05,-2.691747425237960245e-05
5.000000000000000000e+00,3.000000000000000000e+00,8.030359419747790334e-05,1.722958543490932509e-05,-2.758792721757375271e-05
5.000000000000000000e+00,4.000000000000000000e+00,1.085561058027538419e-04,2.311128000316650265e-05,-2.825756536972377900e-05
5.000000000000000000e+00,5.000000000000000000e+00,1.368187249369254613e-04,2.937049644226881592e-05,-2.937049644226881592e-05
5.000000000000000000e+00,6.000000000000000000e+00,1.672970986872914737e-04,3.564410209872842419e-05,-3.046903829745657819e-05
5.000000000000000000e+00,7.000000000000000000e+00,1.977568015318386177e-04,4.248424448805087977e-05,-3.201038726253029845e-05
5.000000000000000000e+00,8.000000000000000000e+00,2.313178732123520706e-04,4.933496453752840528e-05,-3.351649321968775698e-05
5.000000000000000000e+00,9.000000000000000000e+00,2.647897879712141317e-04,5.694094610589269271e-05,-3.546310149754299131e-05
5.000000000000000000e+00,1.000000000000000000e+01,3.022440762074380532e-04,6.454372394069642039e-05,-3.734581857020897338e-05
5.000000000000000000e+00,1.100000000000000000e+01,3.394814251116320784e-04,7.308914820380678877e-05,-3.966342364049332109e-05
5.000000000000000000e+00,1.200000000000000000e+01,3.815709234884246954e-04,8.160424491166553282e-05,-4.188013497824570174e-05
5.000000000000000000e+00,1.300000000000000000e+01,4.232416950681234819e-04,9.124624419317442980e-05,-4.452108806213183538e-05
5.000000000000000000e+00,1.400000000000000000e+01,4.706130996126883662e-04,1.008137749251026010e-04,-4.701529501875977056e-05
5.000000000000000000e+00,1.500000000000000000e+01,5.172722851056430230e-04,1.116867230074039476e-04,-4.991625937004042033e-05
5.000000000000000000e+00,1.600000000000000000e+01,5.704456183527692069e-04,1.224201037501375334e-04,-5.261547953330059741e-05
5.000000000000000000e+00,1.700000000000000000e+01,6.225032441722442179e-04,1.346282242965948328e-04,-5.569542497937989478e-05
5.000000000000000000e+00,1.800000000000000000e+01,6.818364683115289964e-04,1.466066146882075323e-04,-5.850954389367580286e-05
5.000000000000000000e+00,1.900000000000000000e+01,7.395223319595958236e-04,1.602156562321211709e-04,-6.166840244591027592e-05
5.000000000000000000e+00,2.000000000000000000e+01,8.051732732033495482e-04,1.734756441859492955e-04,-6.448885819461625197e-05
5.000000000000000000e+00,2.100000000000000000e+01,8.685000483488283275e-04,1.885039657409676313e-04,-6.760723698633069748e-05
5.000000000000000000e+00,2.200000000000000000e+01,9.403877471760109432e-04,2.030309206553808019e-04,-7.030743545846998566e-05
5.000000000000000000e+00,2.300000000000000000e+01,1.009114919265768299e-03,2.194405216221126365e-04,-7.324778575109236380e-05
5.000000000000000000e+00,2.400000000000000000e+01,1.086883318678195671e-03,2.351602344458779046e-04,-7.568512811295126895e-05
5.000000000000000000e+00,2.500000000000000000e+01,1.160485175491670837e-03,2.528484547758235693e-04,-7.829472967466109910e-05
5.000000000000000000e+00,2.600000000000000000e+01,1.243472778027517869e-03,2.696198681555361971e-04,-8.031456910047871448e-05
5.000000000000000000e+00,2.700000000000000000e+01,1.321114313692628266e-03,2.884126588231889724e-04,-8.243059498462817093e-05
5.000000000000000000e+00,2.800000000000000000e+01,1.408333967996774211e-03,3.060226444794948144e-04,-8.387231518449918613e-05
5.000000000000000000e+00,2.900000000000000000e+01,1.488858944061626638e-03,3.256704358313706853e-04,-8.532908284875854316e-05
5.000000000000000000e+00,3.000000000000000000e+01,1.578992133694291297e-03,3.438316675514430055e-04,-8.603429928300194204e-05
5.000000000000000000e+00,3.100000000000000000e+01,1.660927542627630522e-03,3.640089094211935994e-04,-8.667258710420020287e-05
5.000000000000000000e+00,3.200000000000000000e+01,1.752337307902691703e-03,3.823618721812171214e-04,-8.649521515604295663e-05
5.000000000000000000e+00,3.300000000000000000e+01,1.833917972939716435e-03,4.026712475670402806e-04,-8.617323738119287129e-05
5.000000000000000000e+00,3.400000000000000000e+01,1.924683782665077445e-03,4.207912801754792832e-04,-8.499086625574721245e-05
5.000000000000000000e+00,3.500000000000000000e+01,2.003899705451210860e-03,4.407733706078571095e-04,-8.359617892113758043e-05
5.000000000000000000e+00,3.600000000000000000e+01,2.091876140507352606e-03,4.581833332159303534e-04,-8.132186916748850025e-05
5.000000000000000000e+00,3.700000000000000000e+01,2.166543443786187861e-03,4.773321191631175412e-04,-7.878316733826999825e-05
5.000000000000000000e+00,3.800000000000000000e+01,2.249442475183892603e-03,4.935207994743871958e-04,-7.537650502589202800e-05
5.000000000000000000e+00,3.900000000000000000e+01,2.317296453837971917e-03,5.113048186086801596e-04,-7.167402691923493996e-05
5.000000000000000000e+00,4.000000000000000000e+01,2.392790529022362483e-03,5.257505634112907790e-04,-6.715008309576549032e-05
5.000000000000000000e+00,4.100000000000000000e+01,2.451596620029502897e-03,5.416388638070500795e-04,-6.232322658086147417e-05
5.000000000000000000e+00,4.200000000000000000e+01,2.517436982184085431e-03,5.538372058785467986e-04,-5.675805294767214022e-05
5.000000000000000000e+00,4.300000000000000000e+01,2.565112725924847178e-03,5.673285009421590377e-04,-5.090889566323683613e-05
5.000000000000000000e+00,4.400000000000000000e+01,2.619254773510559103e-03,5.768218450205354637e-04,-4.444038727322041117e-05
5.000000000000000000e+00,4.500000000000000000e+01,2.653993500471288000e-03,5.874746183419338012e-04,-3.773211896858905991e-05
5.000000000000000000e+00,4.600000000000000000e+01,2.694719011447737223e-03,5.938814816290511906e-04,-3.055550797922816121e-05
5.000000000000000000e+00,4.700000000000000000e+01,2.715104516429744323e-03,6.013423371036897332e-04,-2.320532455469615299e-05
5.000000000000000000e+00,4.800000000000000000e+01,2.741129660557129529e-03,6.043833419727966550e-04,-1.556320069438809663e-05
5.000000000000000000e+00,4.900000000000000000e+01,2.746230917818520516e-03,6.084107700035160105e-04,-7.829910851920576439e-06
5.000000000000000000e+00,5.000000000000000000e+01,2.756789482260970682e-03,6.079286624673084245e-04,2.595728579128653291e-09
5.000000000000000000e+00,5.100000000000000000e+01,2.746225726361362258e-03,6.084096726157262134e-04,7.835252293284661329e-06
5.000000000000000000e+00,5.200000000000000000e+01,2.741118977674401359e-03,6.043811298877205598e-04,1.556877410186993660e-05
5.000000000000000000e+00,5.300000000000000000e+01,2.715088178157622385e-03,6.013388833887251071e-04,2.321144691920084407e-05
5.000000000000000000e+00,5.400000000000000000e+01,2.694696083835999671e-03,5.938767325288120402e-04,3.056226976029920508e-05
5.000000000000000000e+00,5.500000000000000000e+01,2.653963638637023975e-03,5.874683056176657845e-04,3.773988945850225221e-05
5.000000000000000000e+00,5.600000000000000000e+01,2.619216304918995167e-03,5.768138728839389794e-04,4.444927435101847339e-05
5.000000000000000000e+00,5.700000000000000000e+01,2.565065089934987028e-03,5.673184300597545505e-04,5.091935992113149137e-05
5.000000000000000000e+00,5.800000000000000000e+01,2.517377585076732184e-03,5.538248887660870545e-04,5.677022953553970477e-05
5.000000000000000000e+00,5.900000000000000000e+01,2.451524630863907619e-03,5.416236427340705845e-04,6.233771264349823212e-05
5.000000000000000000e+00,6.000000000000000000e+01,2.392702159789735720e-03,5.257322249433743662e-04,6.716705221708821338e-05
5.000000000000000000e+00,6.100000000000000000e+01,2.317190526429731192e-03,5.112824186196585248e-04,7.169426690043097759e-05
5.000000000000000000e+00,6.200000000000000000e+01,2.249313625988873765e-03,4.934940390402381936e-04,7.540024068609344106e-05
5.000000000000000000e+00,6.300000000000000000e+01,2.166390045057544310e-03,4.772996747709278660e-04,7.881144273608631928e-05
5.000000000000000000e+00,6.400000000000000000e+01,2.091690740516701126e-03,4.581447947901643022e-04,8.135497499827532009e-05
5.000000000000000000e+00,6.500000000000000000e+01,2.003680095060993670e-03,4.407269118393994595e-04,8.363549524113399886e-05
5.000000000000000000e+00,6.600000000000000000e+01,1.924419750034433128e-03,4.207363471301851700e-04,8.503676612810868399e-05
5.000000000000000000e+00,6.700000000000000000e+01,1.833606562804776302e-03,4.026053507689126123e-04,8.622753327277156259e-05
5.000000000000000000e+00,6.800000000000000000e+01,1.751964683488890003e-03,3.822842731658820459e-04,8.655838056947755006e-05
5.000000000000000000e+00,6.900000000000000000e+01,1.660489801665821202e-03,3.639162506222365498e-04,8.674698226148499884e-05
5.000000000000000000e+00,7.000000000000000000e+01,1.578470718965920006e-03,3.437229765526671546e-04,8.612051710999476650e-05
5.000000000000000000e+00,7.100000000000000000e+01,1.488248767445831669e-03,3.255412290095750219e-04,8.543016734413383037e-05
5.000000000000000000e+00,7.200000000000000000e+01,1.407610384277652345e-03,3.058716568276006499e-04,8.398899738297981813e-05
5.000000000000000000e+00,7.300000000000000000e+01,1.320270772679872032e-03,2.882339605288243827e-04,8.256676027512926518e-05
5.000000000000000000e+00,7.400000000000000000e+01,1.242476863727393814e-03,2.694118338648290195e-04,8.047110308994883179e-05
5.000000000000000000e+00,7.500000000000000000e+01,1.159328566499974369e-03,2.526033168465064501e-04,7.847653803467991799e-05
5.000000000000000000e+00,7.600000000000000000e+01,1.085523787658033978e-03,2.348759313015433194e-04,7.589326243010070805e-05
5.000000000000000000e+00,7.700000000000000000e+01,1.007542041639772953e-03,2.191069756773159028e-04,7.348837013651900781e-05
5.000000000000000000e+00,7.800000000000000000e+01,9.385470473849959628e-04,2.026455524256576225e-04,7.058168987634464309e-05
5.000000000000000000e+00,7.900000000000000000e+01,8.663786618870836665e-04,1.880538273370870603e-04,6.792271715972515115e-05
5.000000000000000000e+00,8.000000000000000000e+01,8.027016130655456605e-04,1.729575548543308880e-04,6.484694056965636250e-05
5.000000000000000000e+00,8.100000000000000000e+01,7.366847807477709415e-04,1.596131436350351450e-04,6.207829549528917808e-05
5.000000000000000000e+00,8.200000000000000000e+01,6.785450220749673043e-04,1.459158183302310943e-04,5.897274755190830536e-05
5.000000000000000000e+00,8.300000000000000000e+01,6.187392856439543308e-04,1.338283974595319819e-04,5.622301916326569431e-05
5.000000000000000000e+00,8.400000000000000000e+01,5.660989837484359157e-04,1.215066422956871076e-04,5.320902511154606022e-05
5.000000000000000000e+00,8.500000000000000000e+01,5.123212354208622104e-04,1.106337631810202886e-04,5.058890969859250767e-05
5.000000000000000000e+00,8.600000000000000000e+01,4.649211643512509004e-04,9.961593317019956108e-05,4.776856961758276432e-05
5.000000000000000000e+00,8.700000000000000000e+01,4.167840961856966817e-04,8.987161420224675499e-05,4.537038057347579016e-05
5.000000000000000000e+00,8.800000000000000000e+01,3.741804032042993200e-04,8.004667425640731135e-05,4.282676978177259912e-05
5.000000000000000000e+00,8.900000000000000000e+01,3.311305566221514835e-04,7.130969817221394853e-05,4.072514361755518613e-05
5.000000000000000000e+00,9.000000000000000000e+01,2.927301159691889478e-04,6.253555367030537362e-05,3.852353456178041723e-05
5.000000000000000000e+00,9.100000000000000000e+01,2.540834874985906490e-04,5.465705936168367501e-05,3.677692987962893282e-05
5.000000000000000000e+00,9.200000000000000000e+01,2.191762562099310821e-04,4.676801189357385040e-05,3.496663443346636427e-05
5.000000000000000000e+00,9.300000000000000000e+01,1.841502186316579205e-04,3.957815314709046094e-05,3.361924058529595254e-05
5.000000000000000000e+00,9.400000000000000000e+01,1.519377750393391771e-04,3.239132924276952454e-05,3.223570473307805205e-05
5.000000000000000000e+00,9.500000000000000000e+01,1.196788091655018164e-04,2.570493475749817473e-05,3.131942052069265213e-05
5.000000000000000000e+00,9.600000000000000000e+01,8.929893399795387279e-05,1.902568589784098068e-05,3.038625518309235929e-05
5.000000000000000000e+00,9.700000000000000000e+01,5.890629879931709781e-05,1.264698963607071062e-05,2.992245557457190840e-05
5.000000000000000000e+00,9.800000000000000000e+01,2.945402284881005599e-05,6.273383676623587790e-06,2.945314939965854891e-05
5.000000000000000000e+00,9.900000000000000000e+01,0.000000000000000000e+00,0.000000000000000000e+00,0.000000000000000000e+00
6.000000000000000000e+00,0.000000000000000000e+00,0.000000000000000000e+00,0.000000000000000000e+00,0.000000000000000000e+00
6.000000000000000000e+00,1.000000000000000000e+00,3.236091144291461288e-05,5.886381960499568043e-06,-3.236679523261096436e-05
6.000000000000000000e+00,2.000000000000000000e+00,6.473359046522192872e-05,1.187077208691401174e-05,-3.291169429476286008e-05
6.000000000000000000e+00,3.000000000000000000e+00,9.818430003244033304e-05,1.786704461405553619e-05,-3.346437078812528428e-05
6.000000000000000000e+00,4.000000000000000000e+00,1.316623320414724973e-04,2.415748511544174701e-05,-3.455639932742557034e-05
6.000000000000000000e+00,5.000000000000000000e+00,1.672970986872914737e-04,3.046903829745657819e-05,-3.564410209872842419e-05
6.000000000000000000e+00,6.000000000000000000e+00,2.029505362389293457e-04,3.727123316122381085e-05,-3.727123316122381085e-05
6.000000000000000000e+00,7.000000000000000000e+00,2.418395650097390954e-04,4.409835226282184150e-05,-3.887343998588839954e-05
6.000000000000000000e+00,8.000000000000000000e+00,2.806974162107061447e-04,5.161272766587818891e-05,-4.101373400665978268e-05
6.000000000000000000e+00,9.000000000000000000e+00,3.238670330230586608e-04,5.914743506247533886e-05,-4.309942680172165210e-05
6.000000000000000000e+00,1.000000000000000000e+01,3.668962698141494489e-04,6.756542989406040750e-05,-4.571880861593301325e-05
6.000000000000000000e+00,1.100000000000000000e+01,4.153046502549246873e-04,7.598747459182391860e-05,-4.824413099224384729e-05
6.000000000000000000e+00,1.200000000000000000e+01,4.633845317986371435e-04,8.548680306780430068e-05,-5.129368140549517806e-05
6.000000000000000000e+00,1.300000000000000000e+01,5.178920130659150434e-04,9.495857313259001981e-05,-5.419922613247946867e-05
6.000000000000000000e+00,1.400000000000000000e+01,5.717829840635960809e-04,1.056972822869350665e-04,-5.761226203527413823e-05
6.000000000000000000e+00,1.500000000000000000e+01,6.331165371364633199e-04,1.163575092271194942e-04,-6.082029587656815001e-05
6.000000000000000000e+00,1.600000000000000000e+01,6.934235758167323809e-04,1.284667640981076889e-04,-6.450958786008924957e-05
6.000000000000000000e+00,1.700000000000000000e+01,7.621357128566418190e-04,1.404230120100006130e-04,-6.792159371430653465e-05
6.000000000000000000e+00,1.800000000000000000e+01,8.292667632453454502e-04,1.539986822593535304e-04,-7.177713933031494575e-05
6.000000000000000000e+00,1.900000000000000000e+01,9.056899915172717105e-04,1.673187692330567141e-04,-7.527211859654543312e-05
6.000000000000000000e+00,2.000000000000000000e+01,9.798110004384363164e-04,1.824120623978765939e-04,-7.915994414161550740e-05
6.000000000000000000e+00,2.100000000000000000e+01,1.064009879800502725e-03,1.971147454329065605e-04,-8.259396538083402933e-05
6.000000000000000000e+00,2.200000000000000000e+01,1.144998931200104375e-03,2.137223300175410297e-04,-8.635645714491859727e-05
6.000000000000000000e+00,2.300000000000000000e+01,1.236722794090339920e-03,2.297677911030845954e-04,-8.956394661172257035e-05
6.000000000000000000e+00,2.400000000000000000e+01,1.324126824423549516e-03,2.478220677146608913e-04,-9.302219854632283371e-05
6.000000000000000000e+00,2.500000000000000000e+01,1.422767191182985587e-03,2.651029548533146048e-04,-9.581942759743643408e-05
6.000000000000000000e+00,2.600000000000000000e+01,1.515765679618422384e-03,2.844633485052367036e-04,-9.877801923846021240e-05
6.000000000000000000e+00,2.700000000000000000e+01,1.620323229659906012e-03,3.027973300200147285e-04,-1.009691359887467544e-04
6.000000000000000000e+00,2.800000000000000000e+01,1.717703951595915893e-03,3.232436654872882908e-04,-1.032236061549094124e-04
6.000000000000000000e+00,2.900000000000000000e+01,1.826770441969724837e-03,3.423686182821667964e-04,-1.046093699997404551e-04
6.000000000000000000e+00,3.000000000000000000e+01,1.926922691595396803e-03,3.635977675734997777e-04,-1.059564175726716850e-04
6.000000000000000000e+00,3.100000000000000000e+01,2.038683277115068207e-03,3.831708007033439662e-04,-1.063455193037651228e-04
6.000000000000000000e+00,3.200000000000000000e+01,2.139613730202927049e-03,4.047978144680619301e-04,-1.065956426565487641e-04
6.000000000000000000e+00,3.300000000000000000e+01,2.251874562428165735e-03,4.243992836600662477e-04,-1.058181380536216305e-04
6.000000000000000000e+00,3.400000000000000000e+01,2.351250006310170310e-03,4.459640915909034555e-04,-1.048100372158257930e-04
6.000000000000000000e+00,3.500000000000000000e+01,2.461494636859817321e-03,4.651075453073712836e-04,-1.027320166508828396e-04
6.000000000000000000e+00,3.600000000000000000e+01,2.556714039611935989e-03,4.860879962504853838e-04,-1.003476674953998615e-04
6.000000000000000000e+00,3.700000000000000000e+01,2.662189971850617044e-03,5.042365795940321940e-04,-9.688588070907826200e-05
6.000000000000000000e+00,3.800000000000000000e+01,2.750485801030092513e-03,5.240680720378072897e-04,-9.306481289013878930e-05
6.000000000000000000e+00,3.900000000000000000e+01,2.848319597630894623e-03,5.406572986476310908e-04,-8.819964174609285813e-05
6.000000000000000000e+00,4.000000000000000000e+01,2.926885084522278229e-03,5.587585431276710039e-04,-8.295069540567622315e-05
6.000000000000000000e+00,4.100000000000000000e+01,3.014220988442247069e-03,5.732245659590801644e-04,-7.673570637363241395e-05
6.000000000000000000e+00,4.200000000000000000e+01,3.080356497269543057e-03,5.890281861729710407e-04,-7.014449542193704722e-05
6.000000000000000000e+00,4.300000000000000000e+01,3.154509979286121164e-03,6.008398445908307971e-04,-6.271089078702129539e-05
6.000000000000000000e+00,4.400000000000000000e+01,3.205778278843585648e-03,6.138256777125962460e-04,-5.494143403173543973e-05
6.000000000000000000e+00,4.500000000000000000e+01,3.264392847349592043e-03,6.225178067690976570e-04,-4.649610861521213077e-05
6.000000000000000000e+00,4.600000000000000000e+01,3.298770496074009909e-03,6.322460593618020857e-04,-3.778563100673430937e-05
6.000000000000000000e+00,4.700000000000000000e+01,3.339964109363060662e-03,6.374509812779101826e-04,-2.860222494445690926e-05
6.000000000000000000e+00,4.800000000000000000e+01,3.355974945962923728e-03,6.435920005518271526e-04,-1.924893954170195549e-05
6.000000000000000000e+00,4.900000000000000000e+01,3.378461988446464573e-03,6.450659336432931074e-04,-9.652179468192228357e-06
6.000000000000000000e+00,5.000000000000000000e+01,3.375279304899308185e-03,6.474233990645728888e-04,3.178604061817441595e-09
6.000000000000000000e+00,5.100000000000000000e+01,3.378455631238340938e-03,6.450648171771491794e-04,9.658585961138613923e-06
6.000000000000000000e+00,5.200000000000000000e+01,3.355962132977030957e-03,6.435897034021112635e-04,1.925576375255634749e-05
6.000000000000000000e+00,5.300000000000000000e+01,3.339944103733228243e-03,6.374474669185747379e-04,2.860957058677116027e-05
6.000000000000000000e+00,5.400000000000000000e+01,3.298742991803488636e-03,6.322411278203159297e-04,3.779390814537936759e-05
6.000000000000000000e+00,5.500000000000000000e+01,3.264356287442469508e-03,6.225113811282089252e-04,4.650543668378252088e-05
6.000000000000000000e+00,5.600000000000000000e+01,3.205732118435923594e-03,6.138173997475937591e-04,5.495230935943047276e-05
6.000000000000000000e+00,5.700000000000000000e+01,3.154451668723608562e-03,6.008295890342167916e-04,6.272345995790963927e-05
6.000000000000000000e+00,5.800000000000000000e+01,3.080285198520104316e-03,5.890153972561841360e-04,7.015939170639884717e-05
6.000000000000000000e+00,5.900000000000000000e+01,3.014132885310810868e-03,5.732090575596478915e-04,7.675311632203895770e-05
6.000000000000000000e+00,6.000000000000000000e+01,2.926778965876026400e-03,5.587395031237956007e-04,8.297144906669251183e-05
6.000000000000000000e+00,6.100000000000000000e+01,2.848189987177425844e-03,5.406344623499327682e-04,8.822398030083932266e-05
6.000000000000000000e+00,6.200000000000000000e+01,2.750331005274347755e-03,5.240402887834642951e-04,9.309383535411859881e-05
6.000000000000000000e+00,6.300000000000000000e+01,2.662002316469188647e-03,5.042034823615100525e-04,9.691989975502525792e-05
6.000000000000000000e+00,6.400000000000000000e+01,2.556491205764297239e-03,4.860479852427965035e-04,1.003881388743949228e-04
6.000000000000000000e+00,6.500000000000000000e+01,2.461226038720398801e-03,4.650601203645720379e-04,1.027793437490653449e-04
6.000000000000000000e+00,6.600000000000000000e+01,2.350932518266166549e-03,4.459070585816108604e-04,1.048661390425627369e-04
6.000000000000000000e+00,6.700000000000000000e+01,2.251493760635273327e-03,4.243319703785051024e-04,1.058835301789016244e-04
6.000000000000000000e+00,6.800000000000000000e+01,2.139165457908363301e-03,4.047172452980795591e-04,1.066728355821958130e-04
6.000000000000000000e+00,6.900000000000000000e+01,2.038148089470881701e-03,3.830760833574201312e-04,1.064351639898411224e-04
6.000000000000000000e+00,7.000000000000000000e+01,1.926295129928681056e-03,3.634849074680263602e-04,1.060617684573259435e-04
6.000000000000000000e+00,7.100000000000000000e+01,1.826024552556229814e-03,3.422364450422608504e-04,1.047312373043138376e-04
6.000000000000000000e+00,7.200000000000000000e+01,1.716832655320053381e-03,3.230868685277421201e-04,1.033661666113210118e-04
6.000000000000000000e+00,7.300000000000000000e+01,1.619292219333587791e-03,3.026143924624304874e-04,1.011333817951799935e-04
6.000000000000000000e+00,7.400000000000000000e+01,1.514565891729693393e-03,2.842472774577259071e-04,9.896925416827114051e-05
6.000000000000000000e+00,7.500000000000000000e+01,1.421353710997045510e-03,2.648518083554009294e-04,9.603884459097778055e-05
6.000000000000000000e+00,7.600000000000000000e+01,1.322488202547737832e-03,2.475267252792510194e-04,9.327645827628496845e-05
6.000000000000000000e+00,7.700000000000000000e+01,1.234800794444475573e-03,2.294257982591986576e-04,8.985445355775829694e-05
6.000000000000000000e+00,7.800000000000000000e+01,1.142779295432221238e-03,2.133219054182101731e-04,8.669148019600531486e-05
6.000000000000000000e+00,7.900000000000000000e+01,1.061417834052464943e-03,1.966528286677381209e-04,8.297511788211303120e-05
6.000000000000000000e+00,8.000000000000000000e+01,9.768290596679951761e-04,1.818735826945382756e-04,7.959736927693887880e-05
6.000000000000000000e+00,8.100000000000000000e+01,9.022230954985871855e-04,1.666999657732544165e-04,7.576761519184605463e-05
6.000000000000000000e+00,8.200000000000000000e+01,8.252938292843030668e-04,1.532804665258585223e-04,7.234299526629530156e-05
6.000000000000000000e+00,8.300000000000000000e+01,7.575371049659965824e-04,1.396008350158120612e-04,6.855974001207623984e-05
6.000000000000000000e+00,8.400000000000000000e+01,6.881743492601505871e-04,1.275166913881738617e-04,6.523471698955264197e-05
6.000000000000000000e+00,8.500000000000000000e+01,6.270676709868912985e-04,1.152741338881340945e-04,6.163437659536429502e-05
6.000000000000000000e+00,8.600000000000000000e+01,5.649055960694219971e-04,1.044509017764910634e-04,5.853262102532429297e-05
6.000000000000000000e+00,8.700000000000000000e+01,5.100024289362427125e-04,9.354288652153668841e-05,5.522772090417002347e-05
6.000000000000000000e+00,8.800000000000000000e+01,4.544501542610819502e-04,8.386533746560607548e-05,5.245044721158262694e-05
6.000000000000000000e+00,8.900000000000000000e+01,4.051015345130774587e-04,7.415305349930644539e-05,4.953069535638490750e-05
6.000000000000000000e+00,9.000000000000000000e+01,3.553887635483121352e-04,6.547375146927854241e-05,4.715820426699716809e-05
6.000000000000000000e+00,9.100000000000000000e+01,3.107851259790831225e-04,5.679054706126358885e-05,4.469254615000020940e-05
6.000000000000000000e+00,9.200000000000000000e+01,2.660036712483117164e-04,4.893742000519722961e-05,4.278647584932266637e-05
6.000000000000000000e+00,9.300000000000000000e+01,2.252121742804377897e-04,4.109611159362777199e-05,4.082565291272185646e-05
6.000000000000000000e+00,9.400000000000000000e+01,1.843523654228680034e-04,3.387889047563329733e-05,3.943149194485854301e-05
6.000000000000000000e+00,9.500000000000000000e+01,1.463491903907207037e-04,2.667788894883593102e-05,3.801068275576437053e-05
6.000000000000000000e+00,9.600000000000000000e+01,1.083309999113392624e-04,1.989344331636174997e-05,3.716016387801368808e-05
6.000000000000000000e+00,9.700000000000000000e+01,7.202886263469332755e-05,1.312178652710737861e-05,3.630135996837705661e-05
6.000000000000000000e+00,9.800000000000000000e+01,3.572827997458514918e-05,6.558509819314474655e-06,3.601443131734666377e-05
6.000000000000000000e+00,9.900000000000000000e+01,0.000000000000000000e+00,0.000000000000000000e+00,0.000000000000000000e+00
7.000000000000000000e+00,0.000000000000000000e+00,0.000000000000000000e+00,0.000000000000000000e+00,0.000000000000000000e+00
7.000000000000000000e+00,1.000000000000000000e+00,3.824140961371783791e-05,6.181043000964511237e-06,-3.856089777071717998e-05
7.000000000000000000e+00,2.000000000000000000e+00,7.712179554143435995e-05,1.237045409799338437e-05,-3.889813690593556890e-05
7.000000000000000000e+00,3.000000000000000000e+00,1.160376834255889757e-04,1.876461691226983614e-05,-3.987464024610148797e-05
7.000000000000000000e+00,4.000000000000000000e+00,1.568710760336373359e-04,2.518257754708841845e-05,-4.085955905312482100e-05
7.000000000000000000e+00,5.000000000000000000e+00,1.977568015318386177e-04,3.201038726253029845e-05,-4.248424448805087977e-05
7.000000000000000000e+00,6.000000000000000000e+00,2.418395650097390954e-04,3.887343998588839954e-05,-4.409835226282184150e-05
7.000000000000000000e+00,7.000000000000000000e+00,2.859535060574823007e-04,4.635188176718467651e-05,-4.635188176718467651e-05
7.000000000000000000e+00,8.000000000000000000e+00,3.345433285441084485e-04,5.387015880068719712e-05,-4.856557601934125435e-05
7.000000000000000000e+00,9.000000000000000000e+00,3.830846580961648094e-04,6.220941931865231044e-05,-5.141580372572520990e-05
7.000000000000000000e+00,1.000000000000000000e+01,4.373749359955588683e-04,7.058308598124592506e-05,-5.418585809955755311e-05
7.000000000000000000e+00,1.100000000000000000e+01,4.914563742952799156e-04,7.998230051911310156e-05,-5.758479681423721427e-05
7.000000000000000000e+00,1.200000000000000000e+01,5.525445296240332968e-04,8.939691963513770440e-05,-6.085123351901180295e-05
7.000000000000000000e+00,1.300000000000000000e+01,6.131588413333035215e-04,1.000386688052118888e-04,-6.473156728126260116e-05
7.000000000000000000e+00,1.400000000000000000e+01,6.820076641865584991e-04,1.106592718629282593e-04,-6.841423111328924500e-05
7.000000000000000000e+00,1.500000000000000000e+01,7.499873035598820115e-04,1.227026699904892274e-04,-7.268574118121304273e-05
7.000000000000000000e+00,1.600000000000000000e+01,8.273791465489845846e-04,1.346664314051729521e-04,-7.668098231618171619e-05
7.000000000000000000e+00,1.700000000000000000e+01,9.033492681922454439e-04,1.482387775791923590e-04,-8.122734314062573634e-05
7.000000000000000000e+00,1.800000000000000000e+01,9.898338328302360573e-04,1.616463331061493707e-04,-8.540530111673190396e-05
7.000000000000000000e+00,1.900000000000000000e+01,1.074159870425709252e-03,1.768334601333909086e-04,-9.008178258443333940e-05
7.000000000000000000e+00,2.000000000000000000e+01,1.169997397999102736e-03,1.917390907395936971e-04,-9.428483439446609833e-05
7.000000000000000000e+00,2.100000000000000000e+01,1.262729539214641448e-03,2.085747466340201256e-04,-9.891750460599513326e-05
7.000000000000000000e+00,2.200000000000000000e+01,1.367832407211093003e-03,2.249758628787919441e-04,-1.029604811286480206e-04
7.000000000000000000e+00,2.300000000000000000e+01,1.468650501471937490e-03,2.434306892322813743e-04,-1.073475234482122254e-04
7.000000000000000000e+00,2.400000000000000000e+01,1.582527454107517453e-03,2.612572904563664061e-04,-1.110202918631812783e-04
7.000000000000000000e+00,2.500000000000000000e+01,1.690691085198300046e-03,2.812282100449176687e-04,-1.149360104652369114e-04
7.000000000000000000e+00,2.600000000000000000e+01,1.812399475037991276e-03,3.003332409920811755e-04,-1.180089442671788382e-04
7.000000000000000000e+00,2.700000000000000000e+01,1.926708973732657723e-03,3.216343115225741255e-04,-1.212109119666797581e-04
7.000000000000000000e+00,2.800000000000000000e+01,2.054821298971350792e-03,3.417860691674766069e-04,-1.234436034466512540e-04
7.000000000000000000e+00,2.900000000000000000e+01,2.173596180625960231e-03,3.641420677553894314e-04,-1.256831849349700301e-04
7.000000000000000000e+00,3.000000000000000000e+01,2.306187668841290853e-03,3.850199837570452343e-04,-1.268364817041791118e-04
7.000000000000000000e+00,3.100000000000000000e+01,2.427269144034318454e-03,4.080641122533928619e-04,-1.278726339987623552e-04
7.000000000000000000e+00,3.200000000000000000e+01,2.561932936838815563e-03,4.292593013276201682e-04,-1.277236981127652382e-04
7.000000000000000000e+00,3.300000000000000000e+01,2.682716540259848931e-03,4.525363917401300454e-04,-1.273395145040343967e-04
7.000000000000000000e+00,3.400000000000000000e+01,2.816611965846884356e-03,4.735582572206976579e-04,-1.256991279030522483e-04
7.000000000000000000e+00,3.500000000000000000e+01,2.934114796065953427e-03,4.965346536043035736e-04,-1.237200835807195087e-04
7.000000000000000000e+00,3.600000000000000000e+01,3.064052133008323374e-03,5.168245268846074873e-04,-1.204509034541494106e-04
7.000000000000000000e+00,3.700000000000000000e+01,3.175016602974252249e-03,5.389053814169339571e-04,-1.167632431255919041e-04
7.000000000000000000e+00,3.800000000000000000e+01,3.297578619259507182e-03,5.578576104351786781e-04,-1.117972240794909249e-04
7.000000000000000000e+00,3.900000000000000000e+01,3.398611051133234098e-03,5.784116429139864006e-04,-1.063644980090986542e-04
7.000000000000000000e+00,4.000000000000000000e+01,3.510307615277704490e-03,5.954017444926823065e-04,-9.971735040721456389e-05
7.000000000000000000e+00,4.100000000000000000e+01,3.598045751947663226e-03,6.137926112407729971e-04,-9.259286962616151105e-05
7.000000000000000000e+00,4.200000000000000000e+01,3.695493354530027513e-03,6.282111282634257523e-04,-8.437333157942277298e-05
7.000000000000000000e+00,4.300000000000000000e+01,3.766792415106508772e-03,6.438335265855487256e-04,-7.570638720286204139e-05
7.000000000000000000e+00,4.400000000000000000e+01,3.846906128935751595e-03,6.551232144699210662e-04,-6.611834945148727105e-05
7.000000000000000000e+00,4.500000000000000000e+01,3.899029114009483314e-03,6.674408738035074624e-04,-5.615250061779489960e-05
7.000000000000000000e+00,4.600000000000000000e+01,3.959211130171341395e-03,6.751339677711490957e-04,-4.548868248804068676e-05
7.000000000000000000e+00,4.700000000000000000e+01,3.990006478985564688e-03,6.837159517312366760e-04,-3.455126574472121986e-05
7.000000000000000000e+00,4.800000000000000000e+01,4.028313661660783834e-03,6.874677453133082317e-04,-2.317815305977102142e-05
7.000000000000000000e+00,4.900000000000000000e+01,4.036362785105106731e-03,6.920192102898886817e-04,-1.166130936466631268e-05
7.000000000000000000e+00,5.000000000000000000e+01,4.051636280390116460e-03,6.916341829705414945e-04,3.712194723056588819e-09
7.000000000000000000e+00,5.100000000000000000e+01,4.036355360715660617e-03,6.920180468745250682e-04,1.166894795574628663e-05
7.000000000000000000e+00,5.200000000000000000e+01,4.028298384478623886e-03,6.874653996250005769e-04,2.318612436044437813e-05
7.000000000000000000e+00,5.300000000000000000e+01,3.989983111994771861e-03,6.837122896531956911e-04,3.456002250099617784e-05
7.000000000000000000e+00,5.400000000000000000e+01,3.959178339476631531e-03,6.751289307056675820e-04,4.549835555066501780e-05
7.000000000000000000e+00,5.500000000000000000e+01,3.898986400893441825e-03,6.674341782764406546e-04,5.616361753122442284e-05
7.000000000000000000e+00,5.600000000000000000e+01,3.846851104414182685e-03,6.551147559440105572e-04,6.613106644501060699e-05
7.000000000000000000e+00,5.700000000000000000e+01,3.766724268003420611e-03,6.438228406342896663e-04,7.572136241254111451e-05
7.000000000000000000e+00,5.800000000000000000e+01,3.695408379589100456e-03,6.281980536647848064e-04,8.439076101010860483e-05
7.000000000000000000e+00,5.900000000000000000e+01,3.597942745983203402e-03,6.137764524203402454e-04,9.261360677588676739e-05
7.000000000000000000e+00,6.000000000000000000e+01,3.510181166037326921e-03,5.953822676422271601e-04,9.974164742680333672e-05
7.000000000000000000e+00,6.100000000000000000e+01,3.398459451129596728e-03,5.783878491048225629e-04,1.063934812407622832e-04
7.000000000000000000e+00,6.200000000000000000e+01,3.297394203555802355e-03,5.578291713821759493e-04,1.118312206745161567e-04
7.000000000000000000e+00,6.300000000000000000e+01,3.174797009780564415e-03,5.388708960093720537e-04,1.168037462767541109e-04
7.000000000000000000e+00,6.400000000000000000e+01,3.063786711002294133e-03,5.167835434549405971e-04,1.204983369952133346e-04
7.000000000000000000e+00,6.500000000000000000e+01,2.933800335790137746e-03,4.964852375741368642e-04,1.237764219023196419e-04
7.000000000000000000e+00,6.600000000000000000e+01,2.816233867197654849e-03,4.734997964531810228e-04,1.257649161141756195e-04
7.000000000000000000e+00,6.700000000000000000e+01,2.682270503561786507e-03,4.524662473877601263e-04,1.274173465563028639e-04
7.000000000000000000e+00,6.800000000000000000e+01,2.561399174085049121e-03,4.291766542905107399e-04,1.278142675905625213e-04
7.000000000000000000e+00,6.900000000000000000e+01,2.426641968380661464e-03,4.079654008780279721e-04,1.279793200915381977e-04
7.000000000000000000e+00,7.000000000000000000e+01,2.305440533901972726e-03,3.849041249197568708e-04,1.269601554251540473e-04
7.000000000000000000e+00,7.100000000000000000e+01,2.172721657530353370e-03,3.640043014876677505e-04,1.258282062844180704e-04
7.000000000000000000e+00,7.200000000000000000e+01,2.053784121333136585e-03,3.416249797786764927e-04,1.236110499628101812e-04
7.000000000000000000e+00,7.300000000000000000e+01,1.925499557604733007e-03,3.214435982588222888e-04,1.214063513451454782e-04
7.000000000000000000e+00,7.400000000000000000e+01,1.810971418642845629e-03,3.001110751482431380e-04,1.182336871969783898e-04
7.000000000000000000e+00,7.500000000000000000e+01,1.689032183210776228e-03,2.809663303288298343e-04,1.151970902131548057e-04
7.000000000000000000e+00,7.600000000000000000e+01,1.580577238216536017e-03,2.609533632008610628e-04,1.113192725263029799e-04
7.000000000000000000e+00,7.700000000000000000e+01,1.466393638158170268e-03,2.430739855336889544e-04,1.076931899975598541e-04
7.000000000000000000e+00,7.800000000000000000e+01,1.365190858221416309e-03,2.245634423202460747e-04,1.033546594678051798e-04
7.000000000000000000e+00,7.900000000000000000e+01,1.259684319222559908e-03,2.080928093975321783e-04,9.937103988339704864e-05
7.000000000000000000e+00,8.000000000000000000e+01,1.166448778454622212e-03,1.911839814828294060e-04,9.479980346414006685e-05
7.000000000000000000e+00,8.100000000000000000e+01,1.070084712294279775e-03,1.761876019137401084e-04,9.067141166396893142e-05
7.000000000000000000e+00,8.200000000000000000e+01,9.851059551266843489e-04,1.609052469841363003e-04,8.607187830935066064e-05
7.000000000000000000e+00,8.300000000000000000e+01,8.979409556755784533e-04,1.473802973001643200e-04,8.198679430095035491e-05
7.000000000000000000e+00,8.400000000000000000e+01,8.211323665247836391e-04,1.336851543530622648e-04,7.753572623922402700e-05
7.000000000000000000e+00,8.500000000000000000e+01,7.428695031971303993e-04,1.215709246202963329e-04,7.365469931027530601e-05
7.000000000000000000e+00,8.600000000000000000e+01,6.738229679042330271e-04,1.093706535260937740e-04,6.949981698418017037e-05
7.000000000000000000e+00,8.700000000000000000e+01,6.038698692287700585e-04,9.855899022813706433e-05,6.595594488436077804e-05
7.000000000000000000e+00,8.800000000000000000e+01,5.419110781355114710e-04,8.771873558517372126e-05,6.221660280400284214e-05
7.000000000000000000e+00,8.900000000000000000e+01,4.794366636207643743e-04,7.806382163787756851e-05,5.911672961388271920e-05
7.000000000000000000e+00,9.000000000000000000e+01,4.236776189077460326e-04,6.841585164623882956e-05,5.588604099982327376e-05
7.000000000000000000e+00,9.100000000000000000e+01,3.676645816211178267e-04,5.974290570378339984e-05,5.331326134371024562e-05
7.000000000000000000e+00,9.200000000000000000e+01,3.170510962203255414e-04,5.109500947232372076e-05,5.066106990110218113e-05
7.000000000000000000e+00,9.300000000000000000e+01,2.663424418189134645e-04,4.320770331689832700e-05,4.867777011485988482e-05
7.000000000000000000e+00,9.400000000000000000e+01,2.196955559906057717e-04,3.535023211729992790e-05,4.665392737786989302e-05
7.000000000000000000e+00,9.500000000000000000e+01,1.730345870631736784e-04,2.803680759829086820e-05,4.530486767996419950e-05
7.000000000000000000e+00,9.600000000000000000e+01,1.290858206306773727e-04,2.074841189166275700e-05,4.394235760482091170e-05
7.000000000000000000e+00,9.700000000000000000e+01,8.514987185353185503e-05,1.378662508329062960e-05,4.325738907161918371e-05
7.000000000000000000e+00,9.800000000000000000e+01,4.257104248743900530e-05,6.838869073526927138e-06,4.257493592676592751e-05
7.000000000000000000e+00,9.900000000000000000e+01,0.000000000000000000e+00,0.000000000000000000e+00,0.000000000000000000e+00
8.000000000000000000e+00,0.000000000000000000e+00,0.000000000000000000e+00,0.000000000000000000e+00,0.000000000000000000e+00
8.000000000000000000e+00,1.000000000000000000e+00,4.472299744484363535e-05,6.467335945365077290e-06,-4.473724933060434873e-05
8.000000000000000000e+00,2.000000000000000000e+00,8.947449866120869746e-05,1.304201042377944230e-05,-4.549526820606818498e-05
8.000000000000000000e+00,3.000000000000000000e+00,1.357135338569800053e-04,1.963839138994203943e-05,-4.627649423722031836e-05
8.000000000000000000e+00,4.000000000000000000e+00,1.820274871356493342e-04,2.655703238881796974e-05,-4.780216967768603266e-05
8.000000000000000000e+00,5.000000000000000000e+00,2.313178732123520706e-04,3.351649321968775698e-05,-4.933496453752840528e-05
8.000000000000000000e+00,6.000000000000000000e+00,2.806974162107061447e-04,4.101373400665978268e-05,-5.161272766587818891e-05
8.000000000000000000e+00,7.000000000000000000e+00,3.345433285441084485e-04,4.856557601934125435e-05,-5.387015880068719712e-05
8.000000000000000000e+00,8.000000000000000000e+00,3.884377338120805390e-04,5.687127155812744372e-05,-5.687127155812741661e-05
8.000000000000000000e+00,9.000000000000000000e+00,4.482858716603632817e-04,6.523699743020086204e-05,-5.981235398228038004e-05
8.000000000000000000e+00,1.000000000000000000e+01,5.080624417766412991e-04,7.457251471263179983e-05,-6.349168981639380436e-05
8.000000000000000000e+00,1.100000000000000000e+01,5.752692512931508904e-04,8.396172186824504792e-05,-6.705796464613562663e-05
8.000000000000000000e+00,1.200000000000000000e+01,6.421783710689125523e-04,9.453497477501457153e-05,-7.135004969159396528e-05
8.000000000000000000e+00,1.300000000000000000e+01,7.179693506763388210e-04,1.051399105901916530e-04,-7.546157836027002352e-05
8.000000000000000000e+00,1.400000000000000000e+01,7.931015277894525994e-04,1.171388903935770948e-04,-8.027626322055147687e-05
8.000000000000000000e+00,1.500000000000000000e+01,8.785218771174417747e-04,1.291274674667359330e-04,-8.482745541881284287e-05
8.000000000000000000e+00,1.600000000000000000e+01,9.627564386270782851e-04,1.427121336888526569e-04,-9.004569544879238111e-05
8.000000000000000000e+00,1.700000000000000000e+01,1.058613268015026537e-03,1.562193337954462290e-04,-9.490149541528295320e-05
8.000000000000000000e+00,1.800000000000000000e+01,1.152559429457644192e-03,1.715118817696652644e-04,-1.003718218845134954e-04
8.000000000000000000e+00,1.900000000000000000e+01,1.259356911784053528e-03,1.866296474547641778e-04,-1.053648762299897595e-04
8.000000000000000000e+00,2.000000000000000000e+01,1.363289181917623711e-03,2.037033621779749592e-04,-1.109012306422447244e-04
8.000000000000000000e+00,2.100000000000000000e+01,1.481159373068542976e-03,2.204692874847885174e-04,-1.158307375200322764e-04
8.000000000000000000e+00,2.200000000000000000e+01,1.594950656957688263e-03,2.393364283399417904e-04,-1.212123997431798460e-04
8.000000000000000000e+00,2.300000000000000000e+01,1.723584172554902668e-03,2.577218124908825514e-04,-1.258453741892970323e-04
8.000000000000000000e+00,2.400000000000000000e+01,1.846641405336282328e-03,2.783212441292766837e-04,-1.308197193589591282e-04
8.000000000000000000e+00,2.500000000000000000e+01,1.985223611272820925e-03,2.982193538779089222e-04,-1.348953781331512034e-04
8.000000000000000000e+00,2.600000000000000000e+01,2.116432161602584735e-03,3.204049294557509073e-04,-1.391841207161166692e-04
8.000000000000000000e+00,2.700000000000000000e+01,2.263591852705054263e-03,3.416206059107237741e-04,-1.424219641641421858e-04
8.000000000000000000e+00,2.800000000000000000e+01,2.401276089930869106e-03,3.651515915649066260e-04,-1.457313623877247184e-04
8.000000000000000000e+00,2.900000000000000000e+01,2.555054577480503700e-03,3.873935998148689795e-04,-1.478432845893090826e-04
8.000000000000000000e+00,3.000000000000000000e+01,2.696962659109487272e-03,4.119286599484372514e-04,-1.498784620706751156e-04
8.000000000000000000e+00,3.100000000000000000e+01,2.854811501621853931e-03,4.348063632255627295e-04,-1.505848368743400566e-04
8.000000000000000000e+00,3.200000000000000000e+01,2.998132332858167385e-03,4.599027457015763230e-04,-1.510679221432859477e-04
8.000000000000000000e+00,3.300000000000000000e+01,3.156947345908425826e-03,4.829287247521364332e-04,-1.501170939466991202e-04
8.000000000000000000e+00,3.400000000000000000e+01,3.298366520751565625e-03,5.080482236003052484e-04,-1.488082990799993212e-04
8.000000000000000000e+00,3.500000000000000000e+01,3.454563944068424469e-03,5.306482850045372152e-04,-1.459982863147926690e-04
8.000000000000000000e+00,3.600000000000000000e+01,3.590363093381150963e-03,5.551712465273641976e-04,-1.427183953080302450e-04
8.000000000000000000e+00,3.700000000000000000e+01,3.740000734684484959e-03,5.767028087539172523e-04,-1.379189642596494528e-04
8.000000000000000000e+00,3.800000000000000000e+01,3.866201021900449869e-03,5.999508355286837027e-04,-1.325710743871912328e-04
8.000000000000000000e+00,3.900000000000000000e+01,4.005142883458867424e-03,6.197299180804539606e-04,-1.257437758035964866e-04
8.000000000000000000e+00,4.000000000000000000e+01,4.117688573507642842e-03,6.409970096768811791e-04,-1.183316637324628197e-04
8.000000000000000000e+00,4.100000000000000000e+01,4.241806210923793063e-03,6.583330062479046327e-04,-1.095450901443758597e-04
8.000000000000000000e+00,4.200000000000000000e+01,4.336778753796394562e-03,6.769237209334479869e-04,-1.001854107667127756e-04
8.000000000000000000e+00,4.300000000000000000e+01,4.442177032457218615e-03,6.911599190180177203e-04,-8.962297699351660929e-05
8.000000000000000000e+00,4.400000000000000000e+01,4.516024707783427780e-03,7.064318977094315166e-04,-7.854878124969417660e-05
8.000000000000000000e+00,4.500000000000000000e+01,4.599274594956606968e-03,7.169885062038626813e-04,-6.650686191644016032e-05
8.000000000000000000e+00,4.600000000000000000e+01,4.649038431616308101e-03,7.283955961453806270e-04,-5.406070893446352291e-05
8.000000000000000000e+00,4.700000000000000000e+01,4.707396012825534014e-03,7.348111125625791940e-04,-4.093600248661604518e-05
8.000000000000000000e+00,4.800000000000000000e+01,4.730910436589540191e-03,7.419426293661934846e-04,-2.755219810035396122e-05
8.000000000000000000e+00,4.900000000000000000e+01,4.762500409026241936e-03,7.439089792324114596e-04,-1.381861712542549123e-05
8.000000000000000000e+00,5.000000000000000000e+01,4.758547670840391174e-03,7.465205867089293526e-04,4.342019425430942992e-09
8.000000000000000000e+00,5.100000000000000000e+01,4.762491724987391074e-03,7.439077877254094556e-04,1.382736930667953154e-05
8.000000000000000000e+00,5.200000000000000000e+01,4.730892932227032111e-03,7.419401780845141098e-04,2.756152097388572461e-05
8.000000000000000000e+00,5.300000000000000000e+01,4.707368683039619625e-03,7.348073613635394338e-04,4.094603950610415516e-05
8.000000000000000000e+00,5.400000000000000000e+01,4.649000853214823800e-03,7.283903324140500457e-04,5.407201952213440410e-05
8.000000000000000000e+00,5.500000000000000000e+01,4.599224643995350817e-03,7.169816453278751202e-04,6.651961144543954568e-05
8.000000000000000000e+00,5.600000000000000000e+01,4.515961630323944709e-03,7.064230587131104053e-04,7.856364700158146100e-05
8.000000000000000000e+00,5.700000000000000000e+01,4.442097349992187895e-03,6.911489638941462933e-04,8.964016223713539011e-05
8.000000000000000000e+00,5.800000000000000000e+01,4.336681305849673929e-03,6.769100583869456372e-04,1.002057799203482681e-04
8.000000000000000000e+00,5.900000000000000000e+01,4.241685790151491359e-03,6.583164308147017741e-04,1.095689023445966040e-04
8.000000000000000000e+00,6.000000000000000000e+01,4.117543501160480721e-03,6.409766569007836843e-04,1.183600523822101944e-04
8.000000000000000000e+00,6.100000000000000000e+01,4.004965685387070970e-03,6.197054950449545907e-04,1.257770765608905335e-04
8.000000000000000000e+00,6.200000000000000000e+01,3.865989348038699654e-03,5.999211167201543796e-04,1.326107884495691079e-04
8.000000000000000000e+00,6.300000000000000000e+01,3.739744108487932754e-03,5.766673868388629172e-04,1.379655276822606101e-04
8.000000000000000000e+00,6.400000000000000000e+01,3.590058292674178433e-03,5.551284165405340545e-04,1.427737973096301124e-04
8.000000000000000000e+00,6.500000000000000000e+01,3.454196513868672529e-03,5.305974900238544494e-04,1.460630907508249192e-04
8.000000000000000000e+00,6.600000000000000000e+01,3.297932111172528595e-03,5.079871235828198675e-04,1.488851292289394748e-04
8.000000000000000000e+00,6.700000000000000000e+01,3.156426255410793580e-03,4.828565684288437486e-04,1.502066723415719073e-04
8.000000000000000000e+00,6.800000000000000000e+01,2.997518766489384780e-03,4.598163570919871004e-04,1.511736820919279672e-04
8.000000000000000000e+00,6.900000000000000000e+01,2.854078891226937646e-03,4.347047409444240382e-04,1.507076933605949916e-04
8.000000000000000000e+00,7.000000000000000000e+01,2.696103379768194797e-03,4.118075368076548962e-04,1.500228678476861650e-04
8.000000000000000000e+00,7.100000000000000000e+01,2.554033155531565315e-03,3.872516562099766798e-04,1.480103824453942157e-04
8.000000000000000000e+00,7.200000000000000000e+01,2.400082614877406366e-03,3.649831492659985806e-04,1.459268698401664736e-04
8.000000000000000000e+00,7.300000000000000000e+01,2.262179415851232368e-03,3.414239456459387118e-04,1.426472864256133483e-04
8.000000000000000000e+00,7.400000000000000000e+01,2.114788042026179669e-03,3.201725667620584784e-04,1.394465220982635950e-04
8.000000000000000000e+00,7.500000000000000000e+01,1.983286371654705178e-03,2.979490746108146406e-04,1.351965565383598557e-04
8.000000000000000000e+00,7.600000000000000000e+01,1.844394928949459958e-03,2.780032761316734904e-04,1.311688030714258484e-04
8.000000000000000000e+00,7.700000000000000000e+01,1.720948765511853482e-03,2.573533383544498055e-04,1.262443744383732851e-04
8.000000000000000000e+00,7.800000000000000000e+01,1.591906180072713388e-03,2.389048101907522304e-04,1.216726563321620909e-04
8.000000000000000000e+00,7.900000000000000000e+01,1.477603452847529300e-03,2.199709851193151116e-04,1.163545787195296999e-04
8.000000000000000000e+00,8.000000000000000000e+01,1.359197022633653988e-03,2.031221887448562491e-04,1.115025767607309487e-04
8.000000000000000000e+00,8.100000000000000000e+01,1.254598299326067402e-03,1.859612134147402025e-04,1.060463496905391604e-04
8.000000000000000000e+00,8.200000000000000000e+01,1.147104323252575667e-03,1.707356570131515500e-04,1.011502998798710900e-04
8.000000000000000000e+00,8.300000000000000000e+01,1.052297699566325222e-03,1.553299528476462200e-04,9.577983264315027530e-05
8.000000000000000000e+00,8.400000000000000000e+01,9.555446579662751167e-04,1.416838165633656221e-04,9.104408966942062909e-05
8.000000000000000000e+00,8.500000000000000000e+01,8.702095202274839642e-04,1.279537567138951983e-04,8.594887742233278585e-05
8.000000000000000000e+00,8.600000000000000000e+01,7.836469031216095451e-04,1.157877421940347001e-04,8.154455541748356151e-05
8.000000000000000000e+00,8.700000000000000000e+01,7.071204093925168412e-04,1.036036852797441550e-04,7.687963884509007619e-05
8.000000000000000000e+00,8.800000000000000000e+01,6.298876254314293927e-04,9.277425682062423202e-05,7.294561580184212276e-05
8.000000000000000000e+00,8.900000000000000000e+01,5.612291777888325957e-04,8.196764582079125072e-05,6.883357929531979920e-05
8.000000000000000000e+00,9.000000000000000000e+01,4.922204668407897943e-04,7.229711560304788887e-05,6.547912020109133676e-05
8.000000000000000000e+00,9.100000000000000000e+01,4.302709373866499222e-04,6.267021463530751441e-05,6.201338832391531820e-05
8.000000000000000000e+00,9.200000000000000000e+01,3.681936901929591579e-04,5.395538015705924153e-05,5.932167823620773921e-05
8.000000000000000000e+00,9.300000000000000000e+01,3.116275809142344437e-04,4.528946008434188734e-05,5.657043026774564933e-05
8.000000000000000000e+00,9.400000000000000000e+01,2.550528296574678592e-04,3.730871752317171312e-05,5.460238766346600181e-05
8.000000000000000000e+00,9.500000000000000000e+01,2.024228055873024401e-04,2.937069743536491109e-05,5.261250298140154142e-05
8.000000000000000000e+00,9.600000000000000000e+01,1.498278236946647764e-04,2.188972748831560745e-05,5.141034639301392668e-05
8.000000000000000000e+00,9.700000000000000000e+01,9.960211280127458675e-05,1.443743284086542854e-05,5.021090278651288647e-05
8.000000000000000000e+00,9.800000000000000000e+01,4.940601812163900345e-05,7.213687384896053329e-06,4.980105640063729337e-05
8.000000000000000000e+00,9.900000000000000000e+01,0.000000000000000000e+00,0.000000000000000000e+00,0.000000000000000000e+00
9.000000000000000000e+00,0.000000000000000000e+00,0.000000000000000000e+00,0.000000000000000000e+00,0.000000000000000000e+00
9.000000000000000000e+00,1.000000000000000000e+00,5.117608150444799249e-05,6.838903054488058831e-06,-5.160290819449662227e-05
9.000000000000000000e+00,2.000000000000000000e+00,1.032058163889932445e-04,1.369186026181724777e-05,-5.206919235051253104e-05
9.000000000000000000e+00,3.000000000000000000e+00,1.553144662054730546e-04,2.077081228308780346e-05,-5.338966221114001541e-05
9.000000000000000000e+00,4.000000000000000000e+00,2.099851408112732754e-04,2.789066739855366409e-05,-5.473766088287053855e-05
9.000000000000000000e+00,5.000000000000000000e+00,2.647897879712141317e-04,3.546310149754299131e-05,-5.694094610589269271e-05
9.000000000000000000e+00,6.000000000000000000e+00,3.238670330230586608e-04,4.309942680172162499e-05,-5.914743506247533886e-05
9.000000000000000000e+00,7.000000000000000000e+00,3.830846580961648094e-04,5.141580372572523701e-05,-6.220941931865233755e-05
9.000000000000000000e+00,8.000000000000000000e+00,4.482858716603633359e-04,5.981235398228043425e-05,-6.523699743020086204e-05
9.000000000000000000e+00,9.000000000000000000e+00,5.135586529565665335e-04,6.911704688022964733e-05,-6.911704688022956601e-05
9.000000000000000000e+00,1.000000000000000000e+01,5.865199654208224679e-04,7.850825357083536429e-05,-7.291058253760173899e-05
9.000000000000000000e+00,1.100000000000000000e+01,6.593798180317700115e-04,8.903521789884843692e-05,-7.754725687661998598e-05
9.000000000000000000e+00,1.200000000000000000e+01,7.416144791740624399e-04,9.964134700648401635e-05,-8.202942224095840801e-05
9.000000000000000000e+00,1.300000000000000000e+01,8.234386625136868275e-04,1.116082375077883044e-04,-8.733548289982512444e-05
9.000000000000000000e+00,1.400000000000000000e+01,9.162854449737126887e-04,1.236289116544523172e-04,-9.240178798983352502e-05
9.000000000000000000e+00,1.500000000000000000e+01,1.008242238493353878e-03,1.372294039641763427e-04,-9.825898447648860482e-05
9.000000000000000000e+00,1.600000000000000000e+01,1.112803413926689898e-03,1.508353020880556761e-04,-1.037728486448920122e-04
9.000000000000000000e+00,1.700000000000000000e+01,1.215787935783137902e-03,1.662295106836416932e-04,-1.100270912214383438e-04
9.000000000000000000e+00,1.800000000000000000e+01,1.332857596369566586e-03,1.815522127223013343e-04,-1.158156147760498527e-04
9.000000000000000000e+00,1.900000000000000000e+01,1.447419165335237607e-03,1.988552765171339035e-04,-1.222732629927430342e-04
9.000000000000000000e+00,2.000000000000000000e+01,1.577404122355052654e-03,2.159754230327532278e-04,-1.281244744244904379e-04
9.000000000000000000e+00,2.100000000000000000e+01,1.703668114184218483e-03,2.352445599136497459e-04,-1.345505707679619644e-04
9.000000000000000000e+00,2.200000000000000000e+01,1.846505263890976583e-03,2.541787505053044738e-04,-1.402130061347420546e-04
9.000000000000000000e+00,2.300000000000000000e+01,1.984094126453702592e-03,2.753993630043219789e-04,-1.463323392375471188e-04
9.000000000000000000e+00,2.400000000000000000e+01,2.139169942366070821e-03,2.960865196919488553e-04,-1.515178332502076491e-04
9.000000000000000000e+00,2.500000000000000000e+01,2.287129792954117891e-03,3.191582579495193250e-04,-1.570196957917111349e-04
9.000000000000000000e+00,2.600000000000000000e+01,2.453209333949493091e-03,3.414465170422900826e-04,-1.614101962999936902e-04
9.000000000000000000e+00,2.700000000000000000e+01,2.609950185554105271e-03,3.661705516692550632e-04,-1.659575740758354769e-04
9.000000000000000000e+00,2.800000000000000000e+01,2.785124482101164044e-03,3.898060913665574688e-04,-1.692165973507964594e-04
9.000000000000000000e+00,2.900000000000000000e+01,2.948383380255698190e-03,4.158751797668637333e-04,-1.724602533185006555e-04
9.000000000000000000e+00,3.000000000000000000e+01,3.130044988738165355e-03,4.404946929962726045e-04,-1.742492451148728617e-04
9.000000000000000000e+00,3.100000000000000000e+01,3.296881870485443913e-03,4.674878795952221167e-04,-1.758467197519014268e-04
9.000000000000000000e+00,3.200000000000000000e+01,3.481738428241968209e-03,4.926165935009863949e-04,-1.758460596393389419e-04
9.000000000000000000e+00,3.300000000000000000e+01,3.648573989764121797e-03,5.200004885727021065e-04,-1.754849924027633221e-04
9.000000000000000000e+00,3.400000000000000000e+01,3.832708413047494853e-03,5.450576274238496874e-04,-1.734186881554530303e-04
9.000000000000000000e+00,3.500000000000000000e+01,3.995411366075027858e-03,5.721960697979160040e-04,-1.708431065077784580e-04
9.000000000000000000e+00,3.600000000000000000e+01,4.174394626063051769e-03,5.965093654663944020e-04,-1.665054272035294478e-04
9.000000000000000000e+00,3.700000000000000000e+01,4.328422220482086753e-03,6.226828051512126819e-04,-1.615428321269114093e-04
9.000000000000000000e+00,3.800000000000000000e+01,4.497480290316874588e-03,6.455130048451844862e-04,-1.548243334060276331e-04
9.000000000000000000e+00,3.900000000000000000e+01,4.638070887294142020e-03,6.699480892265971023e-04,-1.474106721572961305e-04
9.000000000000000000e+00,4.000000000000000000e+01,4.792301634631466849e-03,6.905233698864831661e-04,-1.383204385746652360e-04
9.000000000000000000e+00,4.100000000000000000e+01,4.914711764443472491e-03,7.124319962811829013e-04,-1.285195808827283188e-04
9.000000000000000000e+00,4.200000000000000000e+01,5.049340796396923486e-03,7.299908302044449265e-04,-1.172002443495358606e-04
9.000000000000000000e+00,4.300000000000000000e+01,5.149112253142544213e-03,7.486164529040598668e-04,-1.052145639788455711e-04
9.000000000000000000e+00,4.400000000000000000e+01,5.259769924354614629e-03,7.624559511459263333e-04,-9.194693663733223207e-05
9.000000000000000000e+00,4.500000000000000000e+01,5.333006126417208677e-03,7.771234306723018639e-04,-7.811619905374400999e-05
9.000000000000000000e+00,4.600000000000000000e+01,5.416002322462102649e-03,7.866487980439321875e-04,-6.331128884675719937e-05
9.000000000000000000e+00,4.700000000000000000e+01,5.459628704110723076e-03,7.968128722907852172e-04,-4.809829896553407744e-05
9.000000000000000000e+00,4.800000000000000000e+01,5.512198920393170803e-03,8.015826803564763542e-04,-3.227601972960328705e-05
9.000000000000000000e+00,4.900000000000000000e+01,5.524180743569929650e-03,8.068695615972482950e-04,-1.623926670740218070e-05
9.000000000000000000e+00,5.000000000000000000e+01,5.544677453807975165e-03,8.066313969073550007e-04,4.903701725060549688e-09
9.000000000000000000e+00,5.100000000000000000e+01,5.524170936166479529e-03,8.068683136595550080e-04,1.624935658016152945e-05
9.000000000000000000e+00,5.200000000000000000e+01,5.512178740647652106e-03,8.015801636241061054e-04,3.228655072231439993e-05
9.000000000000000000e+00,5.300000000000000000e+01,5.459597834721850729e-03,7.968089434587368944e-04,4.810986817146024191e-05
9.000000000000000000e+00,5.400000000000000000e+01,5.415959004304731622e-03,7.866433922591176131e-04,6.332407158632933145e-05
