0.000000000000000000e+00 0.000000000000000000e+00 0.000000000000000000e+00 0.000000000000000000e+00 0.000000000000000000e+00 0.000000000000000000e+00 0.000000000000000000e+00 0.000000000000000000e+00 0.000000000000000000e+00 0.000000000000000000e+00 0.000000000000000000e+00 0.000000000000000000e+00 0.000000000000000000e+00 0.000000000000000000e+00 0.000000000000000000e+00 0.000000000000000000e+00 0.000000000000000000e+00 0.000000000000000000e+00 0.000000000000000000e+00 0.000000000000000000e+00 0.000000000000000000e+00 0.000000000000000000e+00 0.000000000000000000e+00 0.000000000000000000e+00 0.000000000000000000e+00 0.000000000000000000e+00 0.000000000000000000e+00 0.000000000000000000e+00 0.000000000000000000e+00 0.000000000000000000e+00 0.000000000000000000e+00 0.000000000000000000e+00 0.000000000000000000e+00 0.000000000000000000e+00 0.000000000000000000e+00 0.000000000000000000e+00 0.000000000000000000e+00 0.000000000000000000e+00 0.000000000000000000e+00 0.000000000000000000e+00 0.000000000000000000e+00 0.000000000000000000e+00 0.000000000000000000e+00 0.000000000000000000e+00 0.000000000000000000e+00 0.000000000000000000e+00 0.000000000000000000e+00 0.000000000000000000e+00 0.000000000000000000e+00 0.000000000000000000e+00 0.000000000000000000e+00 0.000000000000000000e+00 0.000000000000000000e+00 0.000000000000000000e+00 0.000000000000000000e+00 0.000000000000000000e+00 0.000000000000000000e+00 0.000000000000000000e+00 0.000000000000000000e+00 0.000000000000000000e+00 0.000000000000000000e+00 0.000000000000000000e+00 0.000000000000000000e+00 0.000000000000000000e+00 0.000000000000000000e+00 0.000000000000000000e+00 0.000000000000000000e+00 0.000000000000000000e+00 0.000000000000000000e+00 0.000000000000000000e+00 0.000000000000000000e+00 0.000000000000000000e+00 0.000000000000000000e+00 0.000000000000000000e+00 0.000000000000000000e+00 0.000000000000000000e+00 0.000000000000000000e+00 0.000000000000000000e+00 0.000000000000000000e+00 0.000000000000000000e+00 0.000000000000000000e+00 0.000000000000000000e+00 0.000000000000000000e+00 0.000000000000000000e+00 0.000000000000000000e+00 0.000000000000000000e+00 0.000000000000000000e+00 0.000000000000000000e+00 0.000000000000000000e+00 0.000000000000000000e+00 0.000000000000000000e+00 0.000000000000000000e+00 0.000000000000000000e+00 0.000000000000000000e+00 0.000000000000000000e+00 0.000000000000000000e+00 0.000000000000000000e+00 0.000000000000000000e+00 0.000000000000000000e+00 0.000000000000000000e+00
0.000000000000000000e+00 5.122800868329481071e-06 1.033149241685360985e-05 1.553985149991497558e-05 2.100591807691011472e-05 2.646864569271869844e-05 3.236091144291461288e-05 3.824140961371783791e-05 4.472299744484362858e-05 5.117608150444799249e-05 5.840080355381975302e-05 6.556891352598782658e-05 7.367692342368314484e-05 8.168558780260833292e-05 9.079820225826412640e-05 9.975070447803786129e-05 1.099644021530519545e-04 1.199357099201666483e-04 1.313154370937232615e-04 1.423455837429984038e-04 1.549176344473126871e-04 1.670048835961626026e-04 1.807497688514065996e-04 1.938440391647405249e-04 2.086899037297409922e-04 2.226870655085399218e-04 2.385043347345730460e-04 2.532420958518805630e-04 2.698401192475178710e-04 2.850962727263446368e-04 3.022227515981624449e-04 3.177165375855752361e-04 3.350604588418104471e-04 3.504576789413549960e-04 3.676563077927134135e-04 3.825786060752427902e-04 3.992288091428595467e-04 4.132672011752632824e-04 4.289409866045498982e-04 4.416732934498777442e-04 4.559369946542028533e-04 4.669483624788738638e-04 4.793844074503360742e-04 4.882896251456737662e-04 4.985193922887615897e-04 5.049853333879716390e-04 5.126912745122540888e-04 5.164575613732190745e-04 5.214026436667019895e-04 5.222986225360630973e-04 5.243412517818566484e-04 5.222976070276692502e-04 5.214005538878125571e-04 5.164543656141437362e-04 5.126867898265512116e-04 5.049794931023678752e-04 4.985118688109241216e-04 4.882803101576413309e-04 4.793727930007237251e-04 4.669342881582222307e-04 4.559197187499018774e-04 4.416525887629724092e-04 4.289158031223579332e-04 4.132372253597106030e-04 3.991925825307254621e-04 3.825357037242140294e-04 3.676047315292098197e-04 3.503968611893641758e-04 3.349876928737383335e-04 3.176310752784611128e-04 3.021209639036623058e-04 2.849771861479212477e-04 2.696989157281966861e-04 2.530775250590682618e-04 2.383100616672698558e-04 2.224615059687557405e-04 2.084248084209925516e-04 1.935374296477749320e-04 1.803910074264931376e-04 1.665915376722709685e-04 1.544361214227939216e-04 1.417929633524894284e-04 1.306745401106059823e-04 1.192030498913674354e-04 1.091184975550663831e-04 9.878751111957776126e-05 8.969112357340596245e-05 8.043005320144623312e-05 7.224035556720248476e-05 6.394631014562051719e-05 5.655270076212714201e-05 4.909722896352062280e-05 4.236613221507175688e-05 3.560133652773552870e-05 2.938169419108962375e-05 2.314560295724637687e-05 1.727366124690236931e-05 1.139486739589305007e-05 5.698325950303627052e-06 0.000000000000000000e+00
0.000000000000000000e+00 1.033149241685360985e-05 2.066331729916998615e-05 3.134007980423857023e-05 4.201517511500678826e-05 5.338025136760632291e-05 6.473359046522192872e-05 7.712179554143434640e-05 8.947449866120868391e-05 1.032058163889932310e-04 1.168582191848431930e-04 1.322298628616292446e-04 1.474531923661364470e-04 1.647300560956498842e-04 1.817565167524102978e-04 2.011599230738954944e-04 2.201711942140032949e-04 2.418660673855186380e-04 2.629804547117280209e-04 2.870613118054674809e-04 3.103200704500897692e-04 3.367965124151341334e-04 3.621501526447232439e-04 3.909328351881752144e-04 4.182285102456835221e-04 4.491168513816585876e-04 4.780881775778716720e-04 5.107612775647014589e-04 5.410221084118462843e-04 5.750344738139478041e-04 6.060781960807299067e-04 6.408618251591768292e-04 6.720676188403115021e-04 7.069417770932107364e-04 7.375889461542558135e-04 7.717785098840862154e-04 8.010694293209320600e-04 8.337319993348001231e-04 8.608234517930586204e-04 8.910845739915366961e-04 9.151263226880599136e-04 9.421211768536671017e-04 9.622996421767967754e-04 9.852185968278182309e-04 1.000802610621400954e-03 1.018937241967596274e-03 1.029322203287825425e-03 1.042107896194578200e-03 1.046854390757526003e-03 1.053905606203617631e-03 1.052768777563694354e-03 1.053903548000177919e-03 1.046850242909437350e-03 1.042101419707827442e-03 1.029313300589693560e-03 1.018925408113341468e-03 1.000787671983687389e-03 9.851997266634490019e-04 9.622765736870313386e-04 9.420926728633071236e-04 9.150919980784127071e-04 8.910426538369221969e-04 8.607733983667486665e-04 8.336713260098460934e-04 8.009974010389771075e-04 7.716916977205234146e-04 7.374863612032611822e-04 7.068187488555934287e-04 6.719228350271279912e-04 6.406889918334307500e-04 6.058755941882668083e-04 5.747937060640684152e-04 5.407409517057971265e-04 5.104286367912793743e-04 4.777012156412554751e-04 4.486610496122300611e-04 4.177002980674396153e-04 3.903133975737966264e-04 3.614350623859266770e-04 3.359616249526132235e-04 3.093599846664152895e-04 2.859453512001485127e-04 2.617021471985670790e-04 2.403868308876034156e-04 2.184834292093203222e-04 1.992156047455598993e-04 1.795469299725998961e-04 1.621960531399498009e-04 1.445850589217432158e-04 1.289555417758023225e-04 1.131672639393674145e-04 9.901142353183146395e-05 8.476596336903087601e-05 7.179575902275488533e-05 5.877983727937658944e-05 4.667718853887558623e-05 3.455417463447005370e-05 2.297989308739495622e-05 1.139843640532145814e-05 0.000000000000000000e+00
0.000000000000000000e+00 1.553985149991497558e-05 3.134007980423857023e-05 4.714197530286252079e-05 6.372512916262166932e-05 8.030359419747788979e-05 9.818430003244031949e-05 1.160376834255889622e-04 1.357135338569800053e-04 1.553144662054730275e-04 1.772551584231555851e-04 1.990391263695495661e-04 2.236733220431091104e-04 2.480249274614444049e-04 2.757245388195940093e-04 3.029612768511305370e-04 3.340231875194419470e-04 3.643769106961765878e-04 3.990025093984721606e-04 4.325991383170537025e-04 4.708724659508104881e-04 5.077109429695609178e-04 5.495767060502951317e-04 5.895086386975537020e-04 6.347517891673924804e-04 6.774636521945392618e-04 7.256926253742420870e-04 7.706927284172074245e-04 8.213287043757126716e-04 8.679413180368704970e-04 9.202159546850504669e-04 9.675849481300907804e-04 1.020548854311953890e-03 1.067652864436920580e-03 1.120196578634075502e-03 1.165877057985914523e-03 1.216765443884217221e-03 1.259767915049946584e-03 1.307687699239868566e-03 1.346715228035150723e-03 1.390333972123461480e-03 1.424110380070937962e-03 1.462143654281896406e-03 1.489482509367401645e-03 1.520764632341126263e-03 1.540638820573187297e-03 1.564191496509165528e-03 1.575797429359741646e-03 1.590890179022946176e-03 1.593700633957187071e-03 1.599897238996371169e-03 1.593697564499911481e-03 1.590883862582243447e-03 1.575787769718034904e-03 1.564177940957802489e-03 1.540621166777617372e-03 1.520741890563696722e-03 1.489454350825436275e-03 1.462108544257489928e-03 1.424067831529562435e-03 1.390281743934201940e-03 1.346652630139554951e-03 1.307611558743530800e-03 1.259677279273947780e-03 1.216655905353133688e-03 1.165747324915641231e-03 1.120040612031829828e-03 1.067468938002620257e-03 1.020328786861553596e-03 9.673264628398670333e-04 9.199080815164423480e-04 8.675810922142885868e-04 8.209015600859836340e-04 7.701948547589968505e-04 7.251048682929392463e-04 6.767811787714693049e-04 6.339496542444013555e-04 5.885808001940451457e-04 5.484909920616794438e-04 5.064599150858400132e-04 4.694150398236777121e-04 4.309263095831222540e-04 3.970623366641722897e-04 3.621586972511588393e-04 3.314619349524993352e-04 3.000445486807415906e-04 2.723718447115935719e-04 2.442221704640098719e-04 2.193218923076246496e-04 1.941235340964781830e-04 1.716559230247385057e-04 1.490152378554069831e-04 1.285711869001196072e-04 1.080358989148765404e-04 8.915364560399783873e-05 7.022913928440930459e-05 5.240875898710798227e-05 3.457209391389525621e-05 1.728801073513867029e-05 0.000000000000000000e+00
0.000000000000000000e+00 2.100591807691011811e-05 4.201517511500679503e-05 6.372512916262168287e-05 8.543977203513949199e-05 1.085561058027538419e-04 1.316623320414724973e-04 1.568710760336373359e-04 1.820274871356493342e-04 2.099851408112732754e-04 2.378088219327566082e-04 2.691263538473111097e-04 3.001760419753060779e-04 3.353995246795661838e-04 3.701554342133908789e-04 4.097430911216554247e-04 4.485833683164573140e-04 4.928792642634521534e-04 5.360535338689303856e-04 5.852586790530293686e-04 6.328597120665377255e-04 6.870019483185674626e-04 7.389370898893427714e-04 7.978417508461146468e-04 8.538063555317937066e-04 9.170702816313384487e-04 9.765259433073499896e-04 1.043497912013528067e-03 1.105658662636926264e-03 1.175429570306983466e-03 1.239259356492510792e-03 1.310665458272681008e-03 1.374889985840492806e-03 1.446532067294085174e-03 1.509667445959211743e-03 1.579947895644103102e-03 1.640347373180075282e-03 1.707525733524381962e-03 1.763444202081318121e-03 1.825709960413534304e-03 1.875383957699696671e-03 1.930943260828146910e-03 1.972682085512449460e-03 2.019852977401803088e-03 2.052134588802514720e-03 2.089443610665724441e-03 2.111007532815907528e-03 2.137279435155681195e-03 2.147208262017330418e-03 2.161640448439432552e-03 2.159421979964691336e-03 2.161636286006888511e-03 2.147199873201589837e-03 2.137266336955778029e-03 2.110989526745864556e-03 2.089419676207137939e-03 2.052104372668045636e-03 2.019814808604099461e-03 1.972635420987930207e-03 1.930885599842669699e-03 1.875314515989277668e-03 1.825625149938108795e-03 1.763342927193871368e-03 1.707402966927332915e-03 1.640201616183968635e-03 1.579772215041599882e-03 1.509459824005796209e-03 1.446283059097448103e-03 1.374596911576599209e-03 1.310315588226408602e-03 1.238849176823346747e-03 1.174942094537079771e-03 1.105089341664852081e-03 1.042824298275939025e-03 9.757422240000353545e-04 9.161470773040326096e-04 8.527363399446511935e-04 7.965868430898437672e-04 7.374881905809059935e-04 6.853101793782908225e-04 6.309139499593334000e-04 5.829968082285168956e-04 5.334621926238408782e-04 4.898803100469326186e-04 4.451610646687763719e-04 4.058001446248507213e-04 3.656737297290228749e-04 3.302592005317492026e-04 2.943568057482673275e-04 2.624821381686495616e-04 2.303176562077013879e-04 2.014710072557157725e-04 1.724676474611640156e-04 1.460558679862568679e-04 1.195697069373289544e-04 9.493932087572435426e-05 7.027962811565730103e-05 4.673488336255190632e-05 2.318151262133797360e-05 0.000000000000000000e+00
0.000000000000000000e+00 2.646864569271870183e-05 5.338025136760633646e-05 8.030359419747790334e-05 1.085561058027538419e-04 1.368187249369254613e-04 1.672970986872914737e-04 1.977568015318386177e-04 2.313178732123520706e-04 2.647897879712141317e-04 3.022440762074380532e-04 3.394814251116320784e-04 3.815709234884246954e-04 4.232416950681234819e-04 4.706130996126883662e-04 5.172722851056430230e-04 5.704456183527692069e-04 6.225032441722442179e-04 6.818364683115289964e-04 7.395223319595958236e-04 8.051732732033495482e-04 8.685000483488283275e-04 9.403877471760109432e-04 1.009114919265768299e-03 1.086883318678195671e-03 1.160485175491670837e-03 1.243472778027517869e-03 1.321114313692628266e-03 1.408333967996774211e-03 1.488858944061626638e-03 1.578992133694291297e-03 1.660927542627630522e-03 1.752337307902691703e-03 1.833917972939716435e-03 1.924683782665077445e-03 2.003899705451210860e-03 2.091876140507352606e-03 2.166543443786187861e-03 2.249442475183892603e-03 2.317296453837971917e-03 2.392790529022362483e-03 2.451596620029502897e-03 2.517436982184085431e-03 2.565112725924847178e-03 2.619254773510559103e-03 2.653993500471288000e-03 2.694719011447737223e-03 2.715104516429744323e-03 2.741129660557129529e-03 2.746230917818520516e-03 2.756789482260970682e-03 2.746225726361362258e-03 2.741118977674401359e-03 2.715088178157622385e-03 2.694696083835999671e-03 2.653963638637023975e-03 2.619216304918995167e-03 2.565065089934987028e-03 2.517377585076732184e-03 2.451524630863907619e-03 2.392702159789735720e-03 2.317190526429731192e-03 2.249313625988873765e-03 2.166390045057544310e-03 2.091690740516701126e-03 2.003680095060993670e-03 1.924419750034433128e-03 1.833606562804776302e-03 1.751964683488890003e-03 1.660489801665821202e-03 1.578470718965920006e-03 1.488248767445831669e-03 1.407610384277652345e-03 1.320270772679872032e-03 1.242476863727393814e-03 1.159328566499974369e-03 1.085523787658033978e-03 1.007542041639772953e-03 9.385470473849959628e-04 8.663786618870836665e-04 8.027016130655456605e-04 7.366847807477709415e-04 6.785450220749673043e-04 6.187392856439543308e-04 5.660989837484359157e-04 5.123212354208622104e-04 4.649211643512509004e-04 4.167840961856966817e-04 3.741804032042993200e-04 3.311305566221514835e-04 2.927301159691889478e-04 2.540834874985906490e-04 2.191762562099310821e-04 1.841502186316579205e-04 1.519377750393391771e-04 1.196788091655018164e-04 8.929893399795387279e-05 5.890629879931709781e-05 2.945402284881005599e-05 0.000000000000000000e+00
0.000000000000000000e+00 3.236091144291461288e-05 6.473359046522192872e-05 9.818430003244033304e-05 1.316623320414724973e-04 1.672970986872914737e-04 2.029505362389293457e-04 2.418395650097390954e-04 2.806974162107061447e-04 3.238670330230586608e-04 3.668962698141494489e-04 4.153046502549246873e-04 4.633845317986371435e-04 5.178920130659150434e-04 5.717829840635960809e-04 6.331165371364633199e-04 6.934235758167323809e-04 7.621357128566418190e-04 8.292667632453454502e-04 9.056899915172717105e-04 9.798110004384363164e-04 1.064009879800502725e-03 1.144998931200104375e-03 1.236722794090339920e-03 1.324126824423549516e-03 1.422767191182985587e-03 1.515765679618422384e-03 1.620323229659906012e-03 1.717703951595915893e-03 1.826770441969724837e-03 1.926922691595396803e-03 2.038683277115068207e-03 2.139613730202927049e-03 2.251874562428165735e-03 2.351250006310170310e-03 2.461494636859817321e-03 2.556714039611935989e-03 2.662189971850617044e-03 2.750485801030092513e-03 2.848319597630894623e-03 2.926885084522278229e-03 3.014220988442247069e-03 3.080356497269543057e-03 3.154509979286121164e-03 3.205778278843585648e-03 3.264392847349592043e-03 3.298770496074009909e-03 3.339964109363060662e-03 3.355974945962923728e-03 3.378461988446464573e-03 3.375279304899308185e-03 3.378455631238340938e-03 3.355962132977030957e-03 3.339944103733228243e-03 3.298742991803488636e-03 3.264356287442469508e-03 3.205732118435923594e-03 3.154451668723608562e-03 3.080285198520104316e-03 3.014132885310810868e-03 2.926778965876026400e-03 2.848189987177425844e-03 2.750331005274347755e-03 2.662002316469188647e-03 2.556491205764297239e-03 2.461226038720398801e-03 2.350932518266166549e-03 2.251493760635273327e-03 2.139165457908363301e-03 2.038148089470881701e-03 1.926295129928681056e-03 1.826024552556229814e-03 1.716832655320053381e-03 1.619292219333587791e-03 1.514565891729693393e-03 1.421353710997045510e-03 1.322488202547737832e-03 1.234800794444475573e-03 1.142779295432221238e-03 1.061417834052464943e-03 9.768290596679951761e-04 9.022230954985871855e-04 8.252938292843030668e-04 7.575371049659965824e-04 6.881743492601505871e-04 6.270676709868912985e-04 5.649055960694219971e-04 5.100024289362427125e-04 4.544501542610819502e-04 4.051015345130774587e-04 3.553887635483121352e-04 3.107851259790831225e-04 2.660036712483117164e-04 2.252121742804377897e-04 1.843523654228680034e-04 1.463491903907207037e-04 1.083309999113392624e-04 7.202886263469332755e-05 3.572827997458514918e-05 0.000000000000000000e+00
0.000000000000000000e+00 3.824140961371783791e-05 7.712179554143435995e-05 1.160376834255889757e-04 1.568710760336373359e-04 1.977568015318386177e-04 2.418395650097390954e-04 2.859535060574823007e-04 3.345433285441084485e-04 3.830846580961648094e-04 4.373749359955588683e-04 4.914563742952799156e-04 5.525445296240332968e-04 6.131588413333035215e-04 6.820076641865584991e-04 7.499873035598820115e-04 8.273791465489845846e-04 9.033492681922454439e-04 9.898338328302360573e-04 1.074159870425709252e-03 1.169997397999102736e-03 1.262729539214641448e-03 1.367832407211093003e-03 1.468650501471937490e-03 1.582527454107517453e-03 1.690691085198300046e-03 1.812399475037991276e-03 1.926708973732657723e-03 2.054821298971350792e-03 2.173596180625960231e-03 2.306187668841290853e-03 2.427269144034318454e-03 2.561932936838815563e-03 2.682716540259848931e-03 2.816611965846884356e-03 2.934114796065953427e-03 3.064052133008323374e-03 3.175016602974252249e-03 3.297578619259507182e-03 3.398611051133234098e-03 3.510307615277704490e-03 3.598045751947663226e-03 3.695493354530027513e-03 3.766792415106508772e-03 3.846906128935751595e-03 3.899029114009483314e-03 3.959211130171341395e-03 3.990006478985564688e-03 4.028313661660783834e-03 4.036362785105106731e-03 4.051636280390116460e-03 4.036355360715660617e-03 4.028298384478623886e-03 3.989983111994771861e-03 3.959178339476631531e-03 3.898986400893441825e-03 3.846851104414182685e-03 3.766724268003420611e-03 3.695408379589100456e-03 3.597942745983203402e-03 3.510181166037326921e-03 3.398459451129596728e-03 3.297394203555802355e-03 3.174797009780564415e-03 3.063786711002294133e-03 2.933800335790137746e-03 2.816233867197654849e-03 2.682270503561786507e-03 2.561399174085049121e-03 2.426641968380661464e-03 2.305440533901972726e-03 2.172721657530353370e-03 2.053784121333136585e-03 1.925499557604733007e-03 1.810971418642845629e-03 1.689032183210776228e-03 1.580577238216536017e-03 1.466393638158170268e-03 1.365190858221416309e-03 1.259684319222559908e-03 1.166448778454622212e-03 1.070084712294279775e-03 9.851059551266843489e-04 8.979409556755784533e-04 8.211323665247836391e-04 7.428695031971303993e-04 6.738229679042330271e-04 6.038698692287700585e-04 5.419110781355114710e-04 4.794366636207643743e-04 4.236776189077460326e-04 3.676645816211178267e-04 3.170510962203255414e-04 2.663424418189134645e-04 2.196955559906057717e-04 1.730345870631736784e-04 1.290858206306773727e-04 8.514987185353185503e-05 4.257104248743900530e-05 0.000000000000000000e+00
0.000000000000000000e+00 4.472299744484363535e-05 8.947449866120869746e-05 1.357135338569800053e-04 1.820274871356493342e-04 2.313178732123520706e-04 2.806974162107061447e-04 3.345433285441084485e-04 3.884377338120805390e-04 4.482858716603632817e-04 5.080624417766412991e-04 5.752692512931508904e-04 6.421783710689125523e-04 7.179693506763388210e-04 7.931015277894525994e-04 8.785218771174417747e-04 9.627564386270782851e-04 1.058613268015026537e-03 1.152559429457644192e-03 1.259356911784053528e-03 1.363289181917623711e-03 1.481159373068542976e-03 1.594950656957688263e-03 1.723584172554902668e-03 1.846641405336282328e-03 1.985223611272820925e-03 2.116432161602584735e-03 2.263591852705054263e-03 2.401276089930869106e-03 2.555054577480503700e-03 2.696962659109487272e-03 2.854811501621853931e-03 2.998132332858167385e-03 3.156947345908425826e-03 3.298366520751565625e-03 3.454563944068424469e-03 3.590363093381150963e-03 3.740000734684484959e-03 3.866201021900449869e-03 4.005142883458867424e-03 4.117688573507642842e-03 4.241806210923793063e-03 4.336778753796394562e-03 4.442177032457218615e-03 4.516024707783427780e-03 4.599274594956606968e-03 4.649038431616308101e-03 4.707396012825534014e-03 4.730910436589540191e-03 4.762500409026241936e-03 4.758547670840391174e-03 4.762491724987391074e-03 4.730892932227032111e-03 4.707368683039619625e-03 4.649000853214823800e-03 4.599224643995350817e-03 4.515961630323944709e-03 4.442097349992187895e-03 4.336681305849673929e-03 4.241685790151491359e-03 4.117543501160480721e-03 4.004965685387070970e-03 3.865989348038699654e-03 3.739744108487932754e-03 3.590058292674178433e-03 3.454196513868672529e-03 3.297932111172528595e-03 3.156426255410793580e-03 2.997518766489384780e-03 2.854078891226937646e-03 2.696103379768194797e-03 2.554033155531565315e-03 2.400082614877406366e-03 2.262179415851232368e-03 2.114788042026179669e-03 1.983286371654705178e-03 1.844394928949459958e-03 1.720948765511853482e-03 1.591906180072713388e-03 1.477603452847529300e-03 1.359197022633653988e-03 1.254598299326067402e-03 1.147104323252575667e-03 1.052297699566325222e-03 9.555446579662751167e-04 8.702095202274839642e-04 7.836469031216095451e-04 7.071204093925168412e-04 6.298876254314293927e-04 5.612291777888325957e-04 4.922204668407897943e-04 4.302709373866499222e-04 3.681936901929591579e-04 3.116275809142344437e-04 2.550528296574678592e-04 2.024228055873024401e-04 1.498278236946647764e-04 9.960211280127458675e-05 4.940601812163900345e-05 0.000000000000000000e+00
0.000000000000000000e+00 5.117608150444799249e-05 1.032058163889932445e-04 1.553144662054730546e-04 2.099851408112732754e-04 2.647897879712141317e-04 3.238670330230586608e-04 3.830846580961648094e-04 4.482858716603633359e-04 5.135586529565665335e-04 5.865199654208224679e-04 6.593798180317700115e-04 7.416144791740624399e-04 8.234386625136868275e-04 9.162854449737126887e-04 1.008242238493353878e-03 1.112803413926689898e-03 1.215787935783137902e-03 1.332857596369566586e-03 1.447419165335237607e-03 1.577404122355052654e-03 1.703668114184218483e-03 1.846505263890976583e-03 1.984094126453702592e-03 2.139169942366070821e-03 2.287129792954117891e-03 2.453209333949493091e-03 2.609950185554105271e-03 2.785124482101164044e-03 2.948383380255698190e-03 3.130044988738165355e-03 3.296881870485443913e-03 3.481738428241968209e-03 3.648573989764121797e-03 3.832708413047494853e-03 3.995411366075027858e-03 4.174394626063051769e-03 4.328422220482086753e-03 4.497480290316874588e-03 4.638070887294142020e-03 4.792301634631466849e-03 4.914711764443472491e-03 5.049340796396923486e-03 5.149112253142544213e-03 5.259769924354614629e-03 5.333006126417208677e-03 5.416002322462102649e-03 5.459628704110723076e-03 5.512198920393170803e-03 5.524180743569929650e-03 5.544677453807975165e-03 5.524170936166479529e-03 5.512178740647652106e-03 5.459597834721850729e-03 5.415959004304731622e-03 5.332949691549192066e-03 5.259697221840403496e-03 5.149022195791713198e-03 5.049228496362991730e-03 4.914575607612606950e-03 4.792134479838894290e-03 4.637870441219505910e-03 4.497236436996111114e-03 4.328131783458290249e-03 4.174043544083362242e-03 3.994995315837846644e-03 3.832208114363294584e-03 3.647983640419474004e-03 3.481031888269023322e-03 3.296051450269509540e-03 3.129055607517282518e-03 2.947224969950306729e-03 2.783750419865133746e-03 2.608347448896610431e-03 2.451316552166962585e-03 2.284930332432405509e-03 2.136583790479882998e-03 1.981100314867069879e-03 1.843000478602920770e-03 1.699626289461190131e-03 1.572693155944334710e-03 1.442007139123760179e-03 1.326577269152987449e-03 1.208600861370870893e-03 1.104499999651514883e-03 9.987770166249207958e-04 9.053984522923024273e-04 8.110772397882583685e-04 7.274595917767599351e-04 6.433719552623468757e-04 5.682718501138418104e-04 4.930050108917328556e-04 4.249618565344440244e-04 3.569213619875972392e-04 2.943129910369491980e-04 2.317759819339035006e-04 1.728652756073085876e-04 1.140247375352627121e-04 5.699841725723111196e-05 0.000000000000000000e+00
0.000000000000000000e+00 5.840080355381975302e-05 1.168582191848431930e-04 1.772551584231556122e-04 2.378088219327566624e-04 3.022440762074380532e-04 3.668962698141493947e-04 4.373749359955589225e-04 5.080624417766414075e-04 5.865199654208225763e-04 6.650789489183120276e-04 7.533396870908477642e-04 8.414610650818805850e-04 9.411858256919154297e-04 1.040359351098357234e-03 1.152980685045794460e-03 1.264427042803189637e-03 1.391072289382309923e-03 1.515663854902246860e-03 1.657067464818321335e-03 1.795240027983130166e-03 1.951648492895842468e-03 2.103308157968297211e-03 2.274382898563546626e-03 2.438814444720180039e-03 2.623540127171859575e-03 2.799325195687164900e-03 2.995932956043564389e-03 3.180888272663984044e-03 3.386804937014231166e-03 3.577952045102032481e-03 3.789787260812298164e-03 3.983365519860140175e-03 4.196948323053830039e-03 4.388481775599265000e-03 4.598956083664256476e-03 4.783381824313939767e-03 4.985366344986910322e-03 5.157227031590818841e-03 5.345039061912061629e-03 5.498735313280609174e-03 5.666670203486158866e-03 5.796760414205284415e-03 5.939409938265338348e-03 6.040936610075280447e-03 6.153521456301210696e-03 6.222336027704172476e-03 6.301021757407104448e-03 6.334075797302492900e-03 6.376239532220738526e-03 6.371810464655101175e-03 6.376228352306501090e-03 6.334053259475244321e-03 6.300986569957093414e-03 6.222287637733059026e-03 6.153457133939650367e-03 6.040855369696764877e-03 5.939307308297205046e-03 5.796634876197972845e-03 5.666515062072092698e-03 5.498548369362983579e-03 5.344810703138719310e-03 5.156954175267946042e-03 4.985035513529596091e-03 4.782988784363131907e-03 4.598482233523992768e-03 4.387921390023329093e-03 4.196276039646795915e-03 3.982573695897722796e-03 3.788841680960098029e-03 3.576842630081116838e-03 3.385485983338137189e-03 3.179346645736211025e-03 2.994108191973375230e-03 2.797200385312653866e-03 2.621036040246947467e-03 2.435909585670597080e-03 2.270974437896715672e-03 2.099369130010709898e-03 1.947046727453239376e-03 1.789942172558733674e-03 1.650905299122726842e-03 1.508596752864743706e-03 1.382888279346182990e-03 1.255077462643992836e-03 1.142201145742072731e-03 1.028092649634421108e-03 9.271056210006338449e-04 8.255015466250049949e-04 7.351023425677902798e-04 6.444899674604979327e-04 5.630980517140368562e-04 4.817273630654869535e-04 4.075520276186804449e-04 3.335017905688282200e-04 2.645999904393517548e-04 1.958325592654033885e-04 1.301566048326028712e-04 6.456291337202273227e-05 0.000000000000000000e+00
0.000000000000000000e+00 6.556891352598782658e-05 1.322298628616292988e-04 1.990391263695496203e-04 2.691263538473111097e-04 3.394814251116321326e-04 4.153046502549246873e-04 4.914563742952800240e-04 5.752692512931511072e-04 6.593798180317702283e-04 7.533396870908478727e-04 8.474389163314285413e-04 9.535548818085565247e-04 1.059484224073736856e-03 1.179551458558990729e-03 1.298894107788277526e-03 1.434413468907205433e-03 1.568410324040664860e-03 1.720493905283849642e-03 1.869946811052670271e-03 2.039211936408803338e-03 2.204377671447723796e-03 2.390834056648061343e-03 2.571314865112005361e-03 2.774252118295197043e-03 2.968891075325975036e-03 3.186776226858888117e-03 3.393568170269003776e-03 3.623965230591460248e-03 3.839996050035209951e-03 4.079521304051967646e-03 4.300949607801577389e-03 4.545276965576529327e-03 4.767372006991793185e-03 5.011301683826003758e-03 5.228549368668793280e-03 5.466149940838054173e-03 5.672434303560795060e-03 5.897262447942076997e-03 6.086123015482676479e-03 6.291517046627876850e-03 6.456473322015267649e-03 6.635906618139880003e-03 6.770830475638240850e-03 6.918300342842697431e-03 7.017807061008183786e-03 7.128225431396904496e-03 7.188046500511029342e-03 7.257593278444716620e-03 7.274891123355431248e-03 7.301290884184254669e-03 7.274878748929179337e-03 7.257567818198185777e-03 7.188007547898217844e-03 7.128170771094529887e-03 7.017735836779582896e-03 6.918208586057649802e-03 6.770716791502370997e-03 6.635764849140876262e-03 6.456301395114807419e-03 6.291305963420505340e-03 6.085869826704443444e-03 5.896954402965576963e-03 5.672067311029017900e-03 5.465706271397963861e-03 5.228023443871661693e-03 5.010669184969141279e-03 4.766625432246657766e-03 4.544383330458766183e-03 4.299898947592042074e-03 4.078269332916081673e-03 3.838529687584914165e-03 3.622225592168856236e-03 3.391538287948027332e-03 3.184378549258304932e-03 2.966103857572133413e-03 2.770974195249392008e-03 2.567518721038485833e-03 2.386388985433472373e-03 2.199249317782323802e-03 2.033233062864897491e-03 1.863075131943669159e-03 1.712517546861482302e-03 1.559278040505124308e-03 1.423859526541883420e-03 1.286857454064955966e-03 1.165702219962279091e-03 1.043751047954850691e-03 9.355325687610501796e-04 8.270459009233114243e-04 7.300836113026180864e-04 6.331698654384297371e-04 5.455138172891108115e-04 4.580575948528094210e-04 3.775598739134291117e-04 2.972896299892719102e-04 2.216630386307438761e-04 1.462062091577226788e-04 7.307206999053705550e-05 0.000000000000000000e+00
0.000000000000000000e+00 7.367692342368317195e-05 1.474531923661365012e-04 2.236733220431091646e-04 3.001760419753061321e-04 3.815709234884247496e-04 4.633845317986371977e-04 5.525445296240334052e-04 6.421783710689127692e-04 7.416144791740626567e-04 8.414610650818806934e-04 9.535548818085566331e-04 1.065835321747179900e-03 1.192774138231668477e-03 1.319468151275590868e-03 1.463163211974294201e-03 1.605922400996689274e-03 1.767909885052588309e-03 1.927954631139816577e-03 2.109280807153196546e-03 2.287283235151688250e-03 2.488377565724494110e-03 2.684335532064219439e-03 2.904878204877303118e-03 3.117988088022627304e-03 3.356781405255524538e-03 3.585320466153409623e-03 3.840176501475547552e-03 4.081408429397644089e-03 4.349067990400454220e-03 4.599187513269049898e-03 4.875287203659351386e-03 5.129420727652608293e-03 5.408525131468697872e-03 5.660803584044165303e-03 5.936517578071605870e-03 6.180234266808690320e-03 6.445405579357378449e-03 6.673265441134017609e-03 6.920279497935444279e-03 7.124736535732954963e-03 7.345894628503957594e-03 7.519562260700730569e-03 7.707521217816188860e-03 7.843627224649084642e-03 7.991866029619395725e-03 8.084712136364233248e-03 8.187980991428409072e-03 8.233359692609912989e-03 8.288062651788791896e-03 8.283583199797306049e-03 8.288048775978423127e-03 8.233331716490099872e-03 8.187937314961667157e-03 8.084652061967258913e-03 7.991786175424111724e-03 7.843526346251881304e-03 7.707393774649606497e-03 7.519406333748354654e-03 7.345701919771015914e-03 7.124504262499789520e-03 6.919995743527789650e-03 6.672926298860902203e-03 6.444994335112298051e-03 6.179745546328043078e-03 5.935928303970396634e-03 5.660106473734915697e-03 5.407688707192421715e-03 5.128435246098641230e-03 4.874110180341608908e-03 4.597806066406253181e-03 4.347425343030982339e-03 4.079487747406271986e-03 3.837902631157544438e-03 3.582671666200403816e-03 3.353659139327733532e-03 3.114364616716353007e-03 2.900625561928688902e-03 2.679418772902371262e-03 2.482632099075239573e-03 2.280665629174863547e-03 2.101581422752182154e-03 1.919120262132391818e-03 1.757676156866525095e-03 1.594225148953460789e-03 1.449672398773484876e-03 1.304107728194889250e-03 1.175136348378636071e-03 1.045831779541033174e-03 9.306871435017663799e-04 8.156287113882331428e-04 7.122148555754662363e-04 6.091004457997170260e-04 5.150678694234771347e-04 4.213904802428069499e-04 3.342083488366347178e-04 2.473237561105774457e-04 1.643381094631304927e-04 8.151915743240283800e-05 0.000000000000000000e+00
0.000000000000000000e+00 8.168558780260834647e-05 1.647300560956498842e-04 2.480249274614444591e-04 3.353995246795662922e-04 4.232416950681236988e-04 5.178920130659152602e-04 6.131588413333037384e-04 7.179693506763391462e-04 8.234386625136870443e-04 9.411858256919156465e-04 1.059484224073737072e-03 1.192774138231668694e-03 1.326308855830166718e-03 1.477496371214648014e-03 1.628368187836619569e-03 1.799455842167881590e-03 1.969352184033182959e-03 2.161869142382667579e-03 2.351938551268610220e-03 2.566802087521277524e-03 2.777513824234344522e-03 3.014878728808012987e-03 3.245874334310359065e-03 3.504978921017908380e-03 3.754925991520086624e-03 4.033946935874068405e-03 4.300408940082134021e-03 4.596340695134164614e-03 4.875679968899914243e-03 5.184257470679586727e-03 5.471590965914171698e-03 5.787276057157786369e-03 6.076504207186223840e-03 6.392555809786402282e-03 6.676483092764773711e-03 6.985127732444054022e-03 7.255688305926009073e-03 7.548400395850770814e-03 7.796992999392127199e-03 8.064883077137451062e-03 8.282806395566878060e-03 8.517100897640170198e-03 8.696064910276699381e-03 8.888644823928886288e-03 9.021317696456079491e-03 9.165268469123580980e-03 9.245805636228456373e-03 9.335920684846829576e-03 9.360416591392518165e-03 9.393595060770566774e-03 9.360401438697108986e-03 9.335889510235347022e-03 9.245757933491097202e-03 9.165201531234755394e-03 9.021230456697724651e-03 8.888532432048247209e-03 8.695925627095818164e-03 8.516927196075893894e-03 8.282595687721111197e-03 8.064624360045780788e-03 7.796682586046023433e-03 7.548022690008820632e-03 7.255238184231232491e-03 6.984583500647199850e-03 6.675837751946965201e-03 6.391779590326515312e-03 6.075587676689473034e-03 5.786178819353206271e-03 5.470300461269500883e-03 5.182719435044438536e-03 4.873877870726488724e-03 4.594202342966098584e-03 4.297912823075474183e-03 4.030997921534808237e-03 3.751496416822044759e-03 3.500944607061061767e-03 3.241200137057545939e-03 3.009404096817029466e-03 2.771194676441399250e-03 2.559432844749404915e-03 2.343464667757803009e-03 2.152029955699002323e-03 1.958081175875123463e-03 1.786425796554932163e-03 1.613499263880633283e-03 1.460381980025548089e-03 1.306854837823770953e-03 1.170480535216360382e-03 1.034242182154487778e-03 9.123871504516738694e-04 7.909603996754850392e-04 6.810798014580158547e-04 5.717229567985750334e-04 4.710395791948809949e-04 3.708295290038826197e-04 2.764050125271852562e-04 1.823033151518189542e-04 9.109466343519066040e-05 0.000000000000000000e+00
0.000000000000000000e+00 9.079820225826412640e-05 1.817565167524102978e-04 2.757245388195940635e-04 3.701554342133909332e-04 4.706130996126885288e-04 5.717829840635962977e-04 6.820076641865587160e-04 7.931015277894528162e-04 9.162854449737127972e-04 1.040359351098357234e-03 1.179551458558990729e-03 1.319468151275591085e-03 1.477496371214647797e-03 1.635840289916214250e-03 1.815211144106368933e-03 1.994180595805035427e-03 2.196954992114772808e-03 2.398231203089060560e-03 2.625877420517566500e-03 2.850472739430467538e-03 3.103700536402635886e-03 3.351791224623128923e-03 3.630374483494908620e-03 3.901127270218559227e-03 4.203726596731348006e-03 4.495132345740644221e-03 4.819133333618390476e-03 5.127865442156966103e-03 5.469252457242499040e-03 5.790571434635214537e-03 6.143860087463751639e-03 6.471588327878143379e-03 6.829841343392775710e-03 7.156432355150444541e-03 7.511382167688229229e-03 7.828105264276741249e-03 8.170401200543712592e-03 8.467654836950930242e-03 8.787242349670463387e-03 9.054996377857844891e-03 9.341620391073845314e-03 9.569970024016369314e-03 9.813775260536580433e-03 9.993569464333685107e-03 1.018575045115425841e-02 1.030923840744555481e-02 1.044267493716093988e-02 1.050410081915642904e-02 1.057390582238643476e-02 1.056997901319533389e-02 1.057388902715241871e-02 1.050406695226308029e-02 1.044262206601018726e-02 1.030916567278293908e-02 1.018565376768998040e-02 9.993447298147559513e-03 9.813620917285079820e-03 9.569781135738291561e-03 9.341386929111097220e-03 9.054714903916200736e-03 8.786898457035684923e-03 8.467243690897123531e-03 8.169902586970555214e-03 7.827512520082558628e-03 7.510667371388490658e-03 7.155586458934704713e-03 6.828826244637445364e-03 6.470391893355210804e-03 6.142430865531935125e-03 5.788893341775507885e-03 5.467256695075556339e-03 5.125530930656157710e-03 4.816368952654134089e-03 4.491910780041311058e-03 4.199928298779890927e-03 3.896717257648303796e-03 3.625197394555711161e-03 3.345802800866801846e-03 3.096700797899924491e-03 2.842406405623553855e-03 2.616489566736400485e-03 2.387453717030692518e-03 2.184466099752709924e-03 1.979897597510510681e-03 1.798731952198459431e-03 1.617066090202898872e-03 1.455929857990462435e-03 1.294993341346149622e-03 1.151559734926560713e-03 1.008717308588489734e-03 8.802562877240256451e-04 7.525354035582866455e-04 6.360225657250851350e-04 5.202153507342593226e-04 4.124193474662775621e-04 3.051634498424621138e-04 2.027145395551463003e-04 1.005561811565408223e-04 0.000000000000000000e+00
0.000000000000000000e+00 9.975070447803786129e-05 2.011599230738955215e-04 3.029612768511305912e-04 4.097430911216554789e-04 5.172722851056431315e-04 6.331165371364635367e-04 7.499873035598822284e-04 8.785218771174418831e-04 1.008242238493354094e-03 1.152980685045794677e-03 1.298894107788277959e-03 1.463163211974294851e-03 1.628368187836619786e-03 1.815211144106368933e-03 2.002455502867606270e-03 2.214507927258744721e-03 2.426055985531812721e-03 2.665394113342650986e-03 2.902867188282127683e-03 3.170830406490580261e-03 3.435024357322602126e-03 3.732017758167176843e-03 4.022705104827588134e-03 4.347992024176852537e-03 4.663720779446100216e-03 5.015220176589124321e-03 5.353126606493816692e-03 5.727235331186132129e-03 6.082892983277900407e-03 6.474357866915108305e-03 6.841689621427478676e-03 7.243557988701517653e-03 7.614840483356288478e-03 8.018518827454034631e-03 8.384507958560955682e-03 8.779955634071641424e-03 9.130156395021168936e-03 9.506232780777629926e-03 9.829325184480947747e-03 1.017429392702159235e-02 1.045870876685428899e-02 1.076088173594831957e-02 1.099549664351957140e-02 1.124397530282262442e-02 1.141887623638171423e-02 1.160432361808379914e-02 1.171155488581332449e-02 1.182691330201880546e-02 1.186112686580146486e-02 1.190219111096290326e-02 1.186110870445415341e-02 1.182687593989938460e-02 1.171149770550363248e-02 1.160424338220216942e-02 1.141877164313170184e-02 1.124384055070310438e-02 1.099532960815865004e-02 1.076067341182219625e-02 1.045845598906878712e-02 1.017398352740375364e-02 9.828952647283386787e-03 9.505779433914864768e-03 9.129615952671308807e-03 8.779302112862886684e-03 8.383732754589734090e-03 8.017586269184652156e-03 7.613738949570393773e-03 7.242239050261699458e-03 6.840137765727520927e-03 6.472508003800654316e-03 6.080724637144074504e-03 5.724661856545323196e-03 5.350121276843592538e-03 5.011668738435517967e-03 4.659588740607904095e-03 4.343130141836510152e-03 4.017069382650194365e-03 3.725415091961518845e-03 3.427399308667943012e-03 3.161935508056352030e-03 2.892633476533552125e-03 2.653507529654870137e-03 2.412431908594511731e-03 2.198751721946418970e-03 1.984464857199794673e-03 1.794495167634956598e-03 1.604805162589030294e-03 1.436148809202765064e-03 1.268286107617115502e-03 1.118042983457625747e-03 9.688120390738408361e-04 8.337123561582732460e-04 6.996165518092194299e-04 5.761282364102067021e-04 4.534690602845061922e-04 3.378815613285774235e-04 2.228352120697632836e-04 1.113238350220730301e-04 0.000000000000000000e+00
0.000000000000000000e+00 1.099644021530519545e-04 2.201711942140032949e-04 3.340231875194419470e-04 4.485833683164573140e-04 5.704456183527692069e-04 6.934235758167324893e-04 8.273791465489845846e-04 9.627564386270783935e-04 1.112803413926690115e-03 1.264427042803189637e-03 1.434413468907205433e-03 1.605922400996689491e-03 1.799455842167882024e-03 1.994180595805035427e-03 2.214507927258745155e-03 2.435339624830525768e-03 2.685194588460282361e-03 2.934422076467602548e-03 3.215840727905080586e-03 3.494957340927124130e-03 3.809064948168376305e-03 4.118550345895389056e-03 4.465327648755176154e-03 4.804414942215159967e-03 5.182456944935503323e-03 5.548900974675934419e-03 5.955187448512776205e-03 6.345056292815845315e-03 6.774759469183209634e-03 7.182277428319843067e-03 7.628638144288261112e-03 8.046113522144158342e-03 8.500421051782929699e-03 8.918294512748448089e-03 9.370005729967434416e-03 9.777052918427696360e-03 1.021408125756304540e-02 1.059779470665746931e-02 1.100698675700047778e-02 1.135414537889328432e-02 1.172194195217624024e-02 1.201935150940305549e-02 1.233260165764001395e-02 1.256795886705552867e-02 1.281482336533059513e-02 1.297762494269459957e-02 1.314847684969126795e-02 1.323087063730400345e-02 1.331908312544700240e-02 1.331654986040066088e-02 1.331906317260104014e-02 1.323083039737667568e-02 1.314841403175189688e-02 1.297753850739040253e-02 1.281470846924295283e-02 1.256781365337450614e-02 1.233241818800288880e-02 1.201912691432305280e-02 1.172166433595234550e-02 1.135381056934664512e-02 1.100657765938918911e-02 1.059730544480763648e-02 1.021348783622585618e-02 9.776347224107945211e-03 9.369154603509913248e-03 8.917286913643780386e-03 8.499211707574018046e-03 8.044687592393675798e-03 7.626934462587222144e-03 7.180276270555513082e-03 6.772378998714313411e-03 6.342270581537465431e-03 5.951888038194881082e-03 5.545054156249262442e-03 5.177920324294704724e-03 4.799145186439636619e-03 4.459139564330552759e-03 4.111388875661136158e-03 3.800691515514968092e-03 3.485302841400358693e-03 3.204600760827592924e-03 2.921511016460723743e-03 2.670227832380302549e-03 2.418212524480857929e-03 2.194739366253663487e-03 1.971644560548102554e-03 1.773556582993038311e-03 1.576510625258764186e-03 1.400759142307565590e-03 1.226356478551057349e-03 1.069431582438169770e-03 9.138854301917461809e-04 7.719478719363104128e-04 6.312119828128416469e-04 5.001961159427674919e-04 3.700585231175779958e-04 2.457503631279466948e-04 1.219039468619880417e-04 0.000000000000000000e+00
0.000000000000000000e+00 1.199357099201666483e-04 2.418660673855186109e-04 3.643769106961765336e-04 4.928792642634520450e-04 6.225032441722441095e-04 7.621357128566418190e-04 9.033492681922455523e-04 1.058613268015026537e-03 1.215787935783138336e-03 1.391072289382309923e-03 1.568410324040664860e-03 1.767909885052588309e-03 1.969352184033182959e-03 2.196954992114772808e-03 2.426055985531812721e-03 2.685194588460282361e-03 2.944960667011188409e-03 3.238425559033131923e-03 3.531116305943468418e-03 3.860832610944510933e-03 4.187727748528389908e-03 4.554500490953792766e-03 4.915640202082566593e-03 5.318878875043040605e-03 5.712791083404821293e-03 6.150230734699387719e-03 6.573665920065509261e-03 7.041109392438696379e-03 7.488811172319248879e-03 7.979924838240804244e-03 8.444472005261566966e-03 8.950674182366143497e-03 9.422435688882822152e-03 9.932921118748619382e-03 1.040016753013263406e-02 1.090211044103211145e-02 1.135132101014584873e-02 1.183029064399807907e-02 1.224668175797020628e-02 1.268728551867900553e-02 1.305556215355433043e-02 1.344230201459360383e-02 1.374759961058190372e-02 1.406588937698288570e-02 1.429483341519053978e-02 1.453208413814885414e-02 1.467385693295315124e-02 1.482050521054895965e-02 1.486778513828187695e-02 1.491812558891929263e-02 1.486776372817267058e-02 1.482046116783301837e-02 1.467378951673687162e-02 1.453198954049715608e-02 1.429471007307519907e-02 1.406573046521358145e-02 1.374740257615534797e-02 1.344205626019658387e-02 1.305526387107089348e-02 1.268691920732492942e-02 1.224624197611908979e-02 1.182975540356841909e-02 1.135068272331653076e-02 1.090133849671773465e-02 1.039925152169819504e-02 9.931819001155634333e-03 9.421133374688219625e-03 8.949114559194787030e-03 8.442636221672180502e-03 7.977736089000323633e-03 7.486244505620199760e-03 7.038062503415928178e-03 6.570106138149203051e-03 6.146023064390603551e-03 5.707893213882013136e-03 5.313114336836743251e-03 4.908954812571243026e-03 4.546665730414903121e-03 4.178675036330434939e-03 3.850268831977829952e-03 3.518955708915738438e-03 3.224295790592405196e-03 2.928755879985117661e-03 2.666446396612850468e-03 2.404635522785899225e-03 2.172278946838595085e-03 1.941265983576255776e-03 1.735694501999380732e-03 1.531883357803324672e-03 1.349356696490837133e-03 1.168672381936034822e-03 1.005039503467651790e-03 8.430775229314345018e-04 6.939033458698651378e-04 5.460448975561440783e-04 4.067059354582187435e-04 2.682037704624574037e-04 1.339585500475833481e-04 0.000000000000000000e+00
0.000000000000000000e+00 1.313154370937232615e-04 2.629804547117279667e-04 3.990025093984721064e-04 5.360535338689302771e-04 6.818364683115288880e-04 8.292667632453453418e-04 9.898338328302360573e-04 1.152559429457644192e-03 1.332857596369566803e-03 1.515663854902246643e-03 1.720493905283849208e-03 1.927954631139816143e-03 2.161869142382667145e-03 2.398231203089060126e-03 2.665394113342650553e-03 2.934422076467602548e-03 3.238425559033131923e-03 3.543203186710267884e-03 3.886840333974368907e-03 4.229529048379059540e-03 4.614524754958404876e-03 4.996083667308825506e-03 5.422791295181796263e-03 5.842669272469617169e-03 6.309747339951420411e-03 6.765564960651286770e-03 7.269656210281809534e-03 7.756904184554184664e-03 8.292348615866742753e-03 8.804138747062557196e-03 9.362761683067689911e-03 9.889675513176024793e-03 1.046069988781163362e-02 1.099078674323057669e-02 1.156092303242650318e-02 1.207990030542226666e-02 1.263366453314251556e-02 1.312536510121879545e-02 1.364566148876931312e-02 1.409275278429819589e-02 1.456173009537285387e-02 1.494669478483512913e-02 1.534684413087443293e-02 1.565316561510356891e-02 1.596857693210842338e-02 1.618202126175712074e-02 1.639966604972277128e-02 1.650950813365681044e-02 1.662038202435364709e-02 1.662040362882195518e-02 1.662035867113426449e-02 1.650946102904585558e-02 1.639959251825582817e-02 1.618192006478615455e-02 1.596844241244532725e-02 1.565299555824927261e-02 1.534662926260413340e-02 1.494643167923704295e-02 1.456140485078596079e-02 1.409236041276308929e-02 1.364518200563360345e-02 1.312479147003041413e-02 1.263296869047082251e-02 1.207907251774826239e-02 1.155992450057537375e-02 1.098960419459234228e-02 1.045928032212701739e-02 9.888001048025073930e-03 9.360760670545312939e-03 8.801787358153399451e-03 8.289550930900288842e-03 7.753628788356844471e-03 7.265775894321235481e-03 6.761038749281938175e-03 6.304408098621602265e-03 5.836464134454078488e-03 5.415502715157794952e-03 4.987644197096799230e-03 4.604653893934315678e-03 4.218141741264787303e-03 3.873578344768580789e-03 3.527960557008039209e-03 3.220749189332917581e-03 2.914181659199525758e-03 2.642022192948594549e-03 2.371569720444123217e-03 2.131214547263394089e-03 1.893118041359178726e-03 1.680611988155427533e-03 1.470514567672931905e-03 1.281392709602762739e-03 1.094522678811392195e-03 9.239663486331423439e-04 7.552789801790403242e-04 5.982336226708804498e-04 4.425165506966954421e-04 2.937774483595181896e-04 1.457264828658879469e-04 0.000000000000000000e+00
0.000000000000000000e+00 1.423455837429984038e-04 2.870613118054674267e-04 4.325991383170536483e-04 5.852586790530292602e-04 7.395223319595956067e-04 9.056899915172716021e-04 1.074159870425709252e-03 1.259356911784053745e-03 1.447419165335237824e-03 1.657067464818321118e-03 1.869946811052669838e-03 2.109280807153196113e-03 2.351938551268609786e-03 2.625877420517566067e-03 2.902867188282127683e-03 3.215840727905080586e-03 3.531116305943468418e-03 3.886840333974368907e-03 4.243512794864679784e-03 4.644713268554877088e-03 5.044758555617345416e-03 5.492848367996497685e-03 5.936772038866175785e-03 6.431490886001320698e-03 6.917964043279956413e-03 7.457000078012445549e-03 7.982489775856256575e-03 8.561111960992972419e-03 9.119540359530983742e-03 9.730282030424374645e-03 1.031276046677061589e-02 1.094520637955348832e-02 1.153990160595711259e-02 1.218064037759413257e-02 1.277283755092053358e-02 1.340564531068024097e-02 1.397807171578314619e-02 1.458438630800405755e-02 1.511784631159005313e-02 1.567756963814238846e-02 1.615191065880375657e-02 1.664453652909683029e-02 1.703991651297713170e-02 1.744592391072779039e-02 1.774428743638246236e-02 1.804667276494449635e-02 1.823327787052400617e-02 1.841904075758691098e-02 1.848383119665393884e-02 1.854519778895597285e-02 1.848380629849657314e-02 1.841898954291819324e-02 1.823319946245443787e-02 1.804656274504097546e-02 1.774414395367069144e-02 1.744573904429980865e-02 1.703968723677486488e-02 1.664425054121786846e-02 1.615156344007281919e-02 1.567714318839304871e-02 1.511733416362182059e-02 1.458376291819065383e-02 1.397732805078807927e-02 1.340474579347703844e-02 1.277176976826269184e-02 1.217935543910052092e-02 1.153838267120243892e-02 1.094338700104909370e-02 1.031061805433059787e-02 9.727727170861219519e-03 9.116543071470710816e-03 8.557553067090314936e-03 7.978329901496957963e-03 7.452081850402412708e-03 6.912236296868379259e-03 6.424747737206549895e-03 5.928947716509057331e-03 5.483676033033664174e-03 5.034154601045241241e-03 4.632335105988399926e-03 4.229255371885757772e-03 3.870268000803327082e-03 3.512098661138988130e-03 3.193829143934906120e-03 2.877701869364829128e-03 2.596874275874457710e-03 2.318904443674018635e-03 2.071371329025581322e-03 1.826931985786275046e-03 1.607915763094504378e-03 1.391861209990692249e-03 1.196145980764898135e-03 1.002986212610702463e-03 8.250633626387587688e-04 6.490940622516416835e-04 4.832677944965738971e-04 3.186629894130319114e-04 1.591239051346963617e-04 0.000000000000000000e+00
0.000000000000000000e+00 1.549176344473126600e-04 3.103200704500896608e-04 4.708724659508103797e-04 6.328597120665375086e-04 8.051732732033493314e-04 9.798110004384360996e-04 1.169997397999102519e-03 1.363289181917623494e-03 1.577404122355052438e-03 1.795240027983129733e-03 2.039211936408802470e-03 2.287283235151687816e-03 2.566802087521276657e-03 2.850472739430467105e-03 3.170830406490580261e-03 3.494957340927124130e-03 3.860832610944510065e-03 4.229529048379059540e-03 4.644713268554877088e-03 5.061052675358421876e-03 5.528116056596573367e-03 5.993779210193645769e-03 6.513683694505145380e-03 7.028558189389537761e-03 7.600230802308765785e-03 8.161981532262279834e-03 8.781872637680650934e-03 9.385513524030461227e-03 1.004717734444313115e-02 1.068468854833334002e-02 1.137843803419282852e-02 1.203848793231020523e-02 1.275119078901083489e-02 1.341903561026831435e-02 1.413412968897550040e-02 1.479177167059501571e-02 1.548958085322485120e-02 1.611626210342423024e-02 1.677468167415674741e-02 1.734776879787755868e-02 1.794335560078371902e-02 1.843962415977130204e-02 1.894906825651310883e-02 1.934632607844799512e-02 1.974820113841031094e-02 2.002710449111440305e-02 2.030370860926786897e-02 2.044954582951288846e-02 2.058857825032501740e-02 2.059275003185142075e-02 2.058855126052269724e-02 2.044949138167591329e-02 2.030362361798891679e-02 2.002698749925261451e-02 1.974804562102127486e-02 1.934612942850441608e-02 1.894881977474137738e-02 1.843931980878674159e-02 1.794297933791803856e-02 1.734731473711447272e-02 1.677412674441424237e-02 1.611559798832230134e-02 1.548877514131630044e-02 1.479081283710912201e-02 1.413297290178552185e-02 1.341766512234461237e-02 1.274954532634441778e-02 1.203654623063826062e-02 1.137611721233248475e-02 1.068196019949017514e-02 1.004393043916159897e-02 9.381710507036747360e-03 8.777366158785680772e-03 8.156722453962378036e-03 7.594025378547005281e-03 7.021342800994683636e-03 6.505205947082974560e-03 5.983957617483558894e-03 5.516624885704815399e-03 5.047788709757814254e-03 4.629260086684058861e-03 4.211757413180522783e-03 3.840215248230638857e-03 3.471334386036281465e-03 3.143540707187928232e-03 2.819321070014858995e-03 2.530967633881577722e-03 2.246530845282852448e-03 1.992532896865593060e-03 1.742355288928118312e-03 1.517086942460963176e-03 1.295213821646806285e-03 1.092687947677766728e-03 8.928941955136507130e-04 7.068931376440269233e-04 5.227975756249264973e-04 3.469633142674728764e-04 1.721061482598656425e-04 0.000000000000000000e+00
0.000000000000000000e+00 1.670048835961626026e-04 3.367965124151339707e-04 5.077109429695607010e-04 6.870019483185671374e-04 8.685000483488280023e-04 1.064009879800502292e-03 1.262729539214641015e-03 1.481159373068542760e-03 1.703668114184218266e-03 1.951648492895842035e-03 2.204377671447723362e-03 2.488377565724493676e-03 2.777513824234343655e-03 3.103700536402635018e-03 3.435024357322601692e-03 3.809064948168376305e-03 4.187727748528389908e-03 4.614524754958404876e-03 5.044758555617345416e-03 5.528116056596574235e-03 6.012873785216882143e-03 6.555094855428495425e-03 7.095625339571221338e-03 7.697049174913987019e-03 8.292419444303287396e-03 8.950916533958137855e-03 9.597505718573602629e-03 1.030796280681065338e-02 1.099896694587773616e-02 1.175281014689948111e-02 1.247781518935715470e-02 1.326263851546164926e-02 1.400733800750771085e-02 1.480672315964218048e-02 1.555287392411812929e-02 1.634650059631480301e-02 1.707221792309701267e-02 1.783636460457625750e-02 1.851684948373514064e-02 1.922536346588837874e-02 1.983411878668225187e-02 2.045988226193781387e-02 2.097040627485600994e-02 2.148724031314457397e-02 2.187508654769638322e-02 2.225992570897154105e-02 2.250490624592018513e-02 2.273996924500370359e-02 2.282818594328182848e-02 2.290280078853286147e-02 2.282815733006688524e-02 2.273991039228787092e-02 2.250481612857270497e-02 2.225979926031445080e-02 2.187492160265737742e-02 2.148702778697974755e-02 2.097014262489948350e-02 2.045955337490356490e-02 1.983371936569812422e-02 1.922487285329408518e-02 1.851626008859837830e-02 1.783564710024435063e-02 1.707136168904570261e-02 1.634546476779190002e-02 1.555164387942566291e-02 1.480524271322944396e-02 1.400558728119235402e-02 1.326054110376698007e-02 1.247534436487090885e-02 1.174986303320398398e-02 1.099550797864876778e-02 1.030385477104152001e-02 9.592701772646639730e-03 8.945235352414858745e-03 8.285799962362578458e-03 7.689253980706071967e-03 7.086575653344598380e-03 6.544482702288534522e-03 6.000598614532644606e-03 5.513782081629212128e-03 5.028238851912138901e-03 4.595315484937371499e-03 4.165670532566762181e-03 3.783524540363051962e-03 3.405805503335743775e-03 3.070010111170280633e-03 2.739114176554579942e-03 2.444288297047386010e-03 2.154313467465126218e-03 1.894409796142458276e-03 1.638917449278235860e-03 1.407444384656722156e-03 1.179657560939906908e-03 9.698414735371909453e-04 7.627867171858886911e-04 5.676837817826789912e-04 3.742865437720675629e-04 1.868550356899894964e-04 0.000000000000000000e+00
0.000000000000000000e+00 1.807497688514065454e-04 3.621501526447231355e-04 5.495767060502949148e-04 7.389370898893424461e-04 9.403877471760106179e-04 1.144998931200103941e-03 1.367832407211092786e-03 1.594950656957687830e-03 1.846505263890976366e-03 2.103308157968296777e-03 2.390834056648061343e-03 2.684335532064219439e-03 3.014878728808012553e-03 3.351791224623128923e-03 3.732017758167176843e-03 4.118550345895389056e-03 4.554500490953792766e-03 4.996083667308825506e-03 5.492848367996497685e-03 5.993779210193645769e-03 6.555094855428495425e-03 7.118101086732234184e-03 7.745864809452409488e-03 8.371593726391899845e-03 9.065310438333751275e-03 9.751759440693378092e-03 1.050794462891474490e-02 1.124986503876081179e-02 1.206144457323576891e-02 1.284976990402969359e-02 1.370553970638615365e-02 1.452691293267152801e-02 1.541114590603372483e-02 1.624764509667456919e-02 1.713995638465513893e-02 1.796913886744905264e-02 1.884473605139248831e-02 1.964012890804863951e-02 2.047057015672486269e-02 2.120271679525855685e-02 2.195726395338015724e-02 2.259537982644169163e-02 2.324295401435871877e-02 2.375714235157790066e-02 2.426876641194411488e-02 2.463260555115520320e-02 2.498406999588380015e-02 2.517723896129989841e-02 2.535159906168801131e-02 2.536210984893130793e-02 2.535156821752596393e-02 2.517717672883597324e-02 2.498397285645131624e-02 2.463247181077510284e-02 2.426858862834087999e-02 2.375691749185770626e-02 2.324266987221064798e-02 2.259503170022990684e-02 2.195683353510021960e-02 2.120219722176535510e-02 2.046993508926618632e-02 1.963936863501102026e-02 1.884381355471097946e-02 1.796804066558711777e-02 1.713863124859422299e-02 1.624607456995515176e-02 1.540925993396810058e-02 1.452468653836639853e-02 1.370287807541706662e-02 1.284663958980608242e-02 1.205771847767386426e-02 1.124549882583393036e-02 1.050276950321340878e-02 9.745717220687840493e-03 9.058179007225230367e-03 8.363297506122427394e-03 7.736114199421031436e-03 7.106798923793336206e-03 6.541867038545702909e-03 5.978502150314252486e-03 5.475043315292660653e-03 4.975595142090062130e-03 4.530721609399285081e-03 4.091287739513419994e-03 3.700509496602393585e-03 3.315799694775938521e-03 2.973456688602859818e-03 2.637194698886986301e-03 2.336808557135462878e-03 2.042052978898352064e-03 1.776600113465112230e-03 1.515988706761939569e-03 1.278101637141124819e-03 1.044027420509317143e-03 8.261342888295601650e-04 6.108642905478334304e-04 4.052784360049492855e-04 2.010274507280247530e-04 0.000000000000000000e+00
0.000000000000000000e+00 1.938440391647404978e-04 3.909328351881751601e-04 5.895086386975535936e-04 7.978417508461144300e-04 1.009114919265768082e-03 1.236722794090339486e-03 1.468650501471937273e-03 1.723584172554902235e-03 1.984094126453702159e-03 2.274382898563545759e-03 2.571314865112005361e-03 2.904878204877302250e-03 3.245874334310359065e-03 3.630374483494908620e-03 4.022705104827587266e-03 4.465327648755176154e-03 4.915640202082567460e-03 5.422791295181796263e-03 5.936772038866174918e-03 6.513683694505145380e-03 7.095625339571221338e-03 7.745864809452409488e-03 8.398139085114282587e-03 9.123025785101384830e-03 9.845469141946438033e-03 1.064341393210713541e-02 1.143264831763118883e-02 1.229844639592856531e-02 1.314717640427483236e-02 1.407130754063003024e-02 1.496766079948623485e-02 1.593567908260299162e-02 1.686268758728109302e-02 1.785481515174520278e-02 1.879016765037880288e-02 1.978123722652889646e-02 2.069745850697525189e-02 2.165736717012819307e-02 2.252258543985711028e-02 2.341741024783637951e-02 2.419684040513811821e-02 2.499070673325401448e-02 2.564888760455926939e-02 2.630655948474441147e-02 2.681023119734697591e-02 2.730021533135033526e-02 2.762152922515991038e-02 2.791928821034242447e-02 2.803886149323902427e-02 2.812958798578362590e-02 2.803882896226968582e-02 2.791922130347176956e-02 2.762142675762148392e-02 2.730007155471141436e-02 2.681004360807333342e-02 2.630631777371855717e-02 2.564858767185549185e-02 2.499033255914726026e-02 2.419638585270749570e-02 2.341685186092553467e-02 2.252191441168999164e-02 2.165655018770363399e-02 2.069648322920007028e-02 1.978005721258468269e-02 1.878876587940895085e-02 1.785312773882105977e-02 1.686069134635849801e-02 1.593328708878662819e-02 1.496484180862486801e-02 1.406794443958174490e-02 1.314322751640667822e-02 1.229375541095963434e-02 1.142716019368522629e-02 1.063692195545624768e-02 9.837901339728076858e-03 9.114111282239373626e-03 8.387784714423763763e-03 7.733718870372495099e-03 7.081568465542580071e-03 6.497263457706353371e-03 5.917837116854189963e-03 5.400765116784382591e-03 4.890333023426894285e-03 4.436011643011889514e-03 3.989145048784470751e-03 3.591660448005719753e-03 3.201718184193934509e-03 2.854153491107968427e-03 2.513673083291386497e-03 2.208443522258926248e-03 1.909441318921921427e-03 1.638543403333821103e-03 1.372732860353335221e-03 1.127918638257693982e-03 8.868587270752011781e-04 6.597481583867194702e-04 4.349354589718714228e-04 2.170811229913386482e-04 0.000000000000000000e+00
0.000000000000000000e+00 2.086899037297409651e-04 4.182285102456834679e-04 6.347517891673923720e-04 8.538063555317934898e-04 1.086883318678195237e-03 1.324126824423549082e-03 1.582527454107516586e-03 1.846641405336281678e-03 2.139169942366070387e-03 2.438814444720180039e-03 2.774252118295197043e-03 3.117988088022627304e-03 3.504978921017907947e-03 3.901127270218559227e-03 4.347992024176851669e-03 4.804414942215160834e-03 5.318878875043042340e-03 5.842669272469618036e-03 6.431490886001322432e-03 7.028558189389537761e-03 7.697049174913987019e-03 8.371593726391901580e-03 9.123025785101386564e-03 9.876901186952922324e-03 1.071180455491769004e-02 1.154377882815753840e-02 1.245915174126683948e-02 1.336409582304742827e-02 1.435256553288954268e-02 1.532062305472935843e-02 1.636962871063409736e-02 1.738545501097311236e-02 1.847656070906518455e-02 1.951876027264634259e-02 2.062724960826538972e-02 2.166818388131248191e-02 2.276312658795077298e-02 2.376929582563177060e-02 2.481429582674883269e-02 2.574749835109173268e-02 2.670230614464795538e-02 2.752171909687697871e-02 2.834479282513463483e-02 2.900997678549349645e-02 2.966189061478220063e-02 3.013649535173924809e-02 3.058383971080506913e-02 3.083952316167086483e-02 3.105868913019489350e-02 3.107855163869448559e-02 3.105865424460280133e-02 3.083945276515993872e-02 3.058372983156615668e-02 3.013634404237573033e-02 2.966168947336952216e-02 2.900972232308770063e-02 2.834447125828742572e-02 2.752132501179614665e-02 2.670181886146554343e-02 2.574690995753929970e-02 2.481357656071642159e-02 2.376843447491346073e-02 2.276208130507301197e-02 2.166693907614258494e-02 2.062574734033027074e-02 1.951697915956164542e-02 1.847442147574978460e-02 1.738292866179675517e-02 1.636660788842007885e-02 1.531706884348934747e-02 1.434833392746379804e-02 1.335913510791270943e-02 1.245327053072069375e-02 1.153690906772384533e-02 1.070369420410169359e-02 9.867461568683224757e-03 9.111928000734624208e-03 8.358723377730300358e-03 7.681980993789768938e-03 7.011146098114388360e-03 6.411190085689744134e-03 5.819295184766388324e-03 5.291740091946172536e-03 4.773280760322773028e-03 4.311993284444547853e-03 3.859978864268536099e-03 3.457598764312970648e-03 3.064027998059567267e-03 2.712378151922430029e-03 2.368606707924044569e-03 2.059000532053128617e-03 1.756010727298088197e-03 1.479469363013376920e-03 1.208055545092922818e-03 9.554494681376537839e-04 7.063341569519717951e-04 4.684649457947785743e-04 2.323615822654584169e-04 0.000000000000000000e+00
0.000000000000000000e+00 2.226870655085398405e-04 4.491168513816584250e-04 6.774636521945389366e-04 9.170702816313381234e-04 1.160485175491670403e-03 1.422767191182984937e-03 1.690691085198299179e-03 1.985223611272820491e-03 2.287129792954117457e-03 2.623540127171859141e-03 2.968891075325974602e-03 3.356781405255524105e-03 3.754925991520086190e-03 4.203726596731348006e-03 4.663720779446100216e-03 5.182456944935505058e-03 5.712791083404823028e-03 6.309747339951421279e-03 6.917964043279958147e-03 7.600230802308766652e-03 8.292419444303287396e-03 9.065310438333751275e-03 9.845469141946439767e-03 1.071180455491768657e-02 1.158106906261385446e-02 1.254033058121371141e-02 1.349608399623120243e-02 1.454346649024675607e-02 1.557836684950655165e-02 1.670377952417267248e-02 1.780477597734768033e-02 1.899188567904665573e-02 2.013933996536019372e-02 2.136480079610048044e-02 2.253188662872393500e-02 2.376495813301096258e-02 2.491756813788357713e-02 2.612037528251835716e-02 2.721780369041472414e-02 2.834650967138808639e-02 2.934316672548499191e-02 3.035027683467012710e-02 3.119858781360879477e-02 3.203644104588762587e-02 3.269085912454908205e-02 3.331608069862215804e-02 3.373781110465025324e-02 3.411614042698001004e-02 3.427782022717519583e-02 3.438842172309555800e-02 3.427778361228709519e-02 3.411606512493457755e-02 3.373769576110748070e-02 3.331591885618735704e-02 3.269064791994132080e-02 3.203616889638084830e-02 3.119825002641036377e-02 3.034985540612188115e-02 2.934265462381923512e-02 2.834588052665585473e-02 2.721704739872293430e-02 2.611945437768272218e-02 2.491646844003593195e-02 2.376362738774605646e-02 2.253030524620790523e-02 2.136289685763034449e-02 2.013708673528223636e-02 1.898918524641649355e-02 1.780159223976934477e-02 1.669998048565539059e-02 1.557390424204645185e-02 1.453816402003637286e-02 1.348987775356099567e-02 1.253298725133108853e-02 1.157250484027162740e-02 1.070171345700611856e-02 9.833742342101206221e-03 9.051550293910391037e-03 8.276486033771806097e-03 7.581612088974752639e-03 6.896481943024009888e-03 6.284748598626439808e-03 5.684051399268637110e-03 5.149150686251238902e-03 4.625568464402409798e-03 4.159694622792298874e-03 3.704670010729843414e-03 3.299019937153244153e-03 2.903204818414721784e-03 2.548355910259165330e-03 2.201943374068459844e-03 1.888123189195942348e-03 1.581078319309161661e-03 1.298342822661754329e-03 1.020549443430519235e-03 7.588875422571017158e-04 5.002285849898127981e-04 2.496108300499177328e-04 0.000000000000000000e+00
0.000000000000000000e+00 2.385043347345729647e-04 4.780881775778715093e-04 7.256926253742417617e-04 9.765259433073495560e-04 1.243472778027517218e-03 1.515765679618421517e-03 1.812399475037990409e-03 2.116432161602583868e-03 2.453209333949492657e-03 2.799325195687164466e-03 3.186776226858887683e-03 3.585320466153408756e-03 4.033946935874067538e-03 4.495132345740644221e-03 5.015220176589124321e-03 5.548900974675935287e-03 6.150230734699388586e-03 6.765564960651287638e-03 7.457000078012447283e-03 8.161981532262283304e-03 8.950916533958137855e-03 9.751759440693378092e-03 1.064341393210713541e-02 1.154377882815753667e-02 1.254033058121370794e-02 1.354039043785224689e-02 1.463995512285147169e-02 1.573531929220184367e-02 1.693080835863614020e-02 1.811135221510709256e-02 1.938927797464572861e-02 2.063797176250563303e-02 2.197732297283608652e-02 2.326921631767144352e-02 2.464059839649642911e-02 2.594219388412385974e-02 2.730750739608646394e-02 2.857683347614334984e-02 2.988983082009116776e-02 3.107756991856090029e-02 3.228564211207527596e-02 3.333763370270973608e-02 3.438507931022911218e-02 3.524634045989911979e-02 3.607910425093931867e-02 3.669915721355006266e-02 3.727059479161876077e-02 3.760940721442374013e-02 3.788613690450916283e-02 3.791953141422545193e-02 3.788609783335120107e-02 3.760932836118378864e-02 3.727047171622807631e-02 3.669898770132489635e-02 3.607887890807501968e-02 3.524605531608403231e-02 3.438471895133744100e-02 3.333719196246177907e-02 3.228509585708030927e-02 3.107691012654196019e-02 2.988902418571712585e-02 2.857586719705855829e-02 2.730633462303510423e-02 2.594079678859780372e-02 2.463891208186455573e-02 2.326721628946959788e-02 2.197492039150632237e-02 2.063513334881764139e-02 1.938588334868523305e-02 1.810735661731641133e-02 1.692605021200807580e-02 1.572973897662533621e-02 1.463333774783485107e-02 1.353265734376788570e-02 1.253119855397652645e-02 1.153314507696841240e-02 1.063090856268527999e-02 9.737249422038253208e-03 8.933923139162745428e-03 8.142334280988807946e-03 7.434085047183696185e-03 6.739165867446724779e-03 6.119567544170373061e-03 5.513702121011135673e-03 4.974503828915982639e-03 4.448561151768406184e-03 3.980296786482665806e-03 3.524176921408842846e-03 3.116627847230355602e-03 2.719668740629436424e-03 2.362196980198851774e-03 2.013460336108059689e-03 1.695231915398241534e-03 1.383687982814413818e-03 1.093806710572305108e-03 8.084379836561031429e-04 5.360097114054259392e-04 2.658531529443996892e-04 0.000000000000000000e+00
0.000000000000000000e+00 2.532420958518805088e-04 5.107612775647013504e-04 7.706927284172070992e-04 1.043497912013527634e-03 1.321114313692627398e-03 1.620323229659905362e-03 1.926708973732657072e-03 2.263591852705053829e-03 2.609950185554104404e-03 2.995932956043563956e-03 3.393568170269003342e-03 3.840176501475547118e-03 4.300408940082133154e-03 4.819133333618389609e-03 5.353126606493816692e-03 5.955187448512776205e-03 6.573665920065510128e-03 7.269656210281810402e-03 7.982489775856258310e-03 8.781872637680650934e-03 9.597505718573602629e-03 1.050794462891474490e-02 1.143264831763118883e-02 1.245915174126683775e-02 1.349608399623120070e-02 1.463995512285147169e-02 1.578802676512059550e-02 1.704562686682953299e-02 1.829819507772906945e-02 1.965956048151390467e-02 2.100301194362250851e-02 2.245041546431529589e-02 2.386276384580708274e-02 2.536938657783190804e-02 2.681909675546647817e-02 2.834807516415405182e-02 2.979343408619505862e-02 3.129765761230577509e-02 3.268711619524571066e-02 3.411023655692280165e-02 3.538419810154547207e-02 3.666330709344969851e-02 3.775775526469880850e-02 3.882800421624126030e-02 3.968006020575901016e-02 4.048106125421311458e-02 4.103600363385098010e-02 4.151920134800526213e-02 4.173778876221224954e-02 4.187333394139663989e-02 4.173774794570847546e-02 4.151911740936700679e-02 4.103587504129612568e-02 4.048088082249377828e-02 3.967982469494982234e-02 3.882770073570653013e-02 3.775737850039359578e-02 3.666283700353879793e-02 3.538362671549828004e-02 3.410953450982186219e-02 3.268627202054506103e-02 3.129662957238623505e-02 2.979220606644812641e-02 2.834658892697915905e-02 2.681733000318291954e-02 2.536725911724731913e-02 2.386024519245581732e-02 2.244739638239246285e-02 2.099945118883753126e-02 1.965531070156697341e-02 1.829320101204410381e-02 1.703969158083191299e-02 1.578107691738518670e-02 1.463172989097977043e-02 1.348648695489817854e-02 1.244784055627538508e-02 1.141949740963324467e-02 1.049250871884110925e-02 9.579622819852110990e-03 8.760968808401450869e-03 7.958358097275245596e-03 7.241563650184085731e-03 6.541350788954997282e-03 5.917722160315891898e-03 5.310183578481978903e-03 4.769549755638822011e-03 4.243779062023569915e-03 3.775056467068362443e-03 3.319460908468422657e-03 2.911062951297584828e-03 2.513715469989451570e-03 2.153830604048906187e-03 1.802701023361330751e-03 1.479463018341378418e-03 1.162551432388184668e-03 8.641247017281499486e-04 5.695191240313879095e-04 2.841207808267192650e-04 0.000000000000000000e+00
0.000000000000000000e+00 2.698401192475178168e-04 5.410221084118461759e-04 8.213287043757123464e-04 1.105658662636925830e-03 1.408333967996773777e-03 1.717703951595915242e-03 2.054821298971349925e-03 2.401276089930868239e-03 2.785124482101162743e-03 3.180888272663982743e-03 3.623965230591459381e-03 4.081408429397643221e-03 4.596340695134163747e-03 5.127865442156965235e-03 5.727235331186131262e-03 6.345056292815844448e-03 7.041109392438698114e-03 7.756904184554186399e-03 8.561111960992972419e-03 9.385513524030462962e-03 1.030796280681065338e-02 1.124986503876081179e-02 1.229844639592856531e-02 1.336409582304742827e-02 1.454346649024675607e-02 1.573531929220184367e-02 1.704562686682953299e-02 1.836096633226662334e-02 1.979634202275193378e-02 2.122568268959694471e-02 2.277255477560881716e-02 2.429791430532596969e-02 2.593326240819428946e-02 2.752646939238262425e-02 2.921624576227146303e-02 3.083757593083081422e-02 3.253566079670165007e-02 3.413324669163898123e-02 3.578145971058652175e-02 3.729206201233912360e-02 3.882186213810461667e-02 4.017364130484476353e-02 4.151010492784019956e-02 4.262786093460808889e-02 4.369619495603634107e-02 4.450902396369239844e-02 4.524316142673964758e-02 4.569360578153408570e-02 4.604546101374618061e-02 4.609826764344036876e-02 4.604541766750128162e-02 4.569351828927964432e-02 4.524302487106630216e-02 4.450883585240426182e-02 4.369594488400393301e-02 4.262754443139867011e-02 4.150970491613230340e-02 4.017315083580152990e-02 3.882125557478282446e-02 3.729132917670216485e-02 3.578056367989172065e-02 3.413217300549319794e-02 3.253435749615185557e-02 3.083602284968778653e-02 2.921437089264779241e-02 2.752424498388095220e-02 2.593058983581253418e-02 2.429475579945885449e-02 2.276877662107250344e-02 2.122123398806985417e-02 1.979104318621527012e-02 1.835474941727301482e-02 1.703825286475729034e-02 1.572669834786782905e-02 1.453328336437958480e-02 1.335223278360170296e-02 1.228449137724895585e-02 1.123366522384082640e-02 1.028898439560920787e-02 9.363560035489638944e-03 8.535498142851472708e-03 7.727379847059375265e-03 7.006802877455102843e-03 6.305652152815457469e-03 5.681635012182212688e-03 5.075675230281335645e-03 4.536189005006528545e-03 4.012808976372614356e-03 3.545221776439116436e-03 3.091406686103028226e-03 2.682827282056248624e-03 2.285445586736783823e-03 1.922938183976579101e-03 1.568911634801584869e-03 1.239608270607931578e-03 9.159902668369238575e-04 6.071252730538191644e-04 3.011108463310895153e-04 0.000000000000000000e+00
0.000000000000000000e+00 2.850962727263445283e-04 5.750344738139475873e-04 8.679413180368701717e-04 1.175429570306983250e-03 1.488858944061626204e-03 1.826770441969724403e-03 2.173596180625959363e-03 2.555054577480502832e-03 2.948383380255696889e-03 3.386804937014229865e-03 3.839996050035208650e-03 4.349067990400452485e-03 4.875679968899912509e-03 5.469252457242498172e-03 6.082892983277899540e-03 6.774759469183208767e-03 7.488811172319249747e-03 8.292348615866744488e-03 9.119540359530983742e-03 1.004717734444313115e-02 1.099896694587773616e-02 1.206144457323576891e-02 1.314717640427483236e-02 1.435256553288954268e-02 1.557836684950655165e-02 1.693080835863614020e-02 1.829819507772906945e-02 1.979634202275193378e-02 2.130052399141509761e-02 2.293569333134103799e-02 2.456361016388983881e-02 2.631770817105175131e-02 2.804590208926147424e-02 2.988928534304322732e-02 3.168184097040593200e-02 3.357142611414221794e-02 3.537838647814174620e-02 3.725652577010950262e-02 3.901341394312227151e-02 4.080827436360209837e-02 4.243754713368912135e-02 4.406586869137121831e-02 4.548116220720913039e-02 4.685414627327537385e-02 4.796783472008590149e-02 4.900031201405590647e-02 4.973401232788113302e-02 5.035588122093640623e-02 5.065218186779800458e-02 5.081969941605932184e-02 5.065213679157661714e-02 5.035578852674341827e-02 4.973387030128517683e-02 4.900011273325371314e-02 4.796757455726299857e-02 4.685381101390147934e-02 4.548074589693541780e-02 4.406534922449881209e-02 4.243691557112932999e-02 4.080749830628048469e-02 3.901248051682645879e-02 3.725538890745147547e-02 3.537702806297832181e-02 3.356978184004423549e-02 3.167988573383950790e-02 2.988693055179661093e-02 2.804311336745451619e-02 2.631436477826808173e-02 2.455966550792376690e-02 2.293098444581669754e-02 2.129498832747410419e-02 1.978976163765294727e-02 1.829048677650313773e-02 1.692168329062191529e-02 1.556771537115063039e-02 1.434000822533140068e-02 1.313257009192004762e-02 1.204429531260952160e-02 1.097908950325425514e-02 1.002393443985001922e-02 9.092694591581632763e-03 8.261085187491582632e-03 7.452828720990579622e-03 6.733025713534197126e-03 6.035029087150079602e-03 5.413962640020139779e-03 4.812492751348594264e-03 4.276371999310605784e-03 3.757210534812400072e-03 3.291945045891333816e-03 2.840741385395730012e-03 2.432209169294256845e-03 2.034694491006617395e-03 1.668887850647815833e-03 1.310979748405032919e-03 9.740569676372427387e-04 6.418808550158755380e-04 3.201488848126580631e-04 0.000000000000000000e+00
0.000000000000000000e+00 3.022227515981623365e-04 6.060781960807296899e-04 9.202159546850501417e-04 1.239259356492510575e-03 1.578992133694290647e-03 1.926922691595396153e-03 2.306187668841289985e-03 2.696962659109485971e-03 3.130044988738164488e-03 3.577952045102031180e-03 4.079521304051965912e-03 4.599187513269048164e-03 5.184257470679586727e-03 5.790571434635213670e-03 6.474357866915108305e-03 7.182277428319842200e-03 7.979924838240805979e-03 8.804138747062558931e-03 9.730282030424376380e-03 1.068468854833334002e-02 1.175281014689948285e-02 1.284976990402969532e-02 1.407130754063003024e-02 1.532062305472935843e-02 1.670377952417266901e-02 1.811135221510708909e-02 1.965956048151390467e-02 2.122568268959694471e-02 2.293569333134103452e-02 2.465295648046225696e-02 2.651255150273810687e-02 2.836340612572972250e-02 3.034882028459787509e-02 3.230292892012288225e-02 3.437619881602898414e-02 3.638790107719037242e-02 3.849458313130637438e-02 4.050105596753501846e-02 4.256905503338391517e-02 4.449007436525787007e-02 4.643064309813433460e-02 4.817112411974187880e-02 4.988325620963460216e-02 5.133972723119837461e-02 5.271887061806018043e-02 5.379037704456418600e-02 5.474130961633684456e-02 5.534372490653239468e-02 5.579555257900729176e-02 5.587621136142230382e-02 5.579550493335774797e-02 5.534362872483224172e-02 5.474115950193987612e-02 5.379017022206240839e-02 5.271859566678466225e-02 5.133937917000881701e-02 4.988281629056286193e-02 4.817058459412897758e-02 4.642997581322647060e-02 4.448926796046397819e-02 4.256806894900046212e-02 4.049987404450792333e-02 3.849314827035093395e-02 3.638619071367132224e-02 3.437413378339794490e-02 3.230047812201146396e-02 3.034587523797656686e-02 2.835992443823518935e-02 2.650838601384709545e-02 2.464804995979907182e-02 2.292984801446721482e-02 2.121882202936153927e-02 1.965142110474530843e-02 1.810183266696606050e-02 1.669253217614180204e-02 1.530751465465321655e-02 1.405588331792100368e-02 1.283185643142295204e-02 1.173181777527732353e-02 1.066039362907455004e-02 9.701926862025742060e-03 8.771437590334746348e-03 7.941912806640711447e-03 7.138592893180670945e-03 6.423783266424797772e-03 5.732653491300549603e-03 5.117473892530036844e-03 4.522975734708814879e-03 3.991995749819688896e-03 3.478421577254177388e-03 3.016196131278072248e-03 2.567955214037897019e-03 2.159210484170536945e-03 1.760965528378028583e-03 1.390672724454622292e-03 1.027377000291138532e-03 6.807423676243494958e-04 3.376038379036670365e-04 0.000000000000000000e+00
0.000000000000000000e+00 3.177165375855751277e-04 6.408618251591766124e-04 9.675849481300903467e-04 1.310665458272680791e-03 1.660927542627629871e-03 2.038683277115067340e-03 2.427269144034317587e-03 2.854811501621853063e-03 3.296881870485442612e-03 3.789787260812296429e-03 4.300949607801574787e-03 4.875287203659349651e-03 5.471590965914169095e-03 6.143860087463750771e-03 6.841689621427477809e-03 7.628638144288261112e-03 8.444472005261566966e-03 9.362761683067693380e-03 1.031276046677061936e-02 1.137843803419283026e-02 1.247781518935715643e-02 1.370553970638615365e-02 1.496766079948623485e-02 1.636962871063409736e-02 1.780477597734767686e-02 1.938927797464572514e-02 2.100301194362250851e-02 2.277255477560881369e-02 2.456361016388983881e-02 2.651255150273810340e-02 2.847023324087060575e-02 3.058192539576862906e-02 3.268304400327742831e-02 3.492658918648439137e-02 3.713212429639677070e-02 3.945904572028244295e-02 4.171098900235836043e-02 4.405245116256386456e-02 4.627167585762050062e-02 4.853733968808819632e-02 5.062382677384846819e-02 5.270388995142892552e-02 5.454101128038902485e-02 5.631315241769823537e-02 5.777754347639225962e-02 5.911983697667755333e-02 6.009712418636967146e-02 6.090603808612261166e-02 6.131009218027647090e-02 6.151966846074973655e-02 6.131004285559982919e-02 6.090593665993198486e-02 6.009696875957971224e-02 5.911961889405707715e-02 5.777725871780445277e-02 5.631278545001561220e-02 5.454055550117822143e-02 5.270332119866139031e-02 5.062313512718358277e-02 4.853648972402219847e-02 4.627065327420349511e-02 4.405120557423468364e-02 4.170950026024618229e-02 3.945724346170555175e-02 3.712998056406949243e-02 3.492400700084520582e-02 3.267998502420509793e-02 3.057825738544469457e-02 2.846590414943033984e-02 2.650738274625787094e-02 2.455753174123415442e-02 2.276532771135661437e-02 2.099454294615049621e-02 1.937925010284244354e-02 1.779306601179729552e-02 1.635582002199491986e-02 1.495159209368779676e-02 1.368666814651203767e-02 1.245593153735753689e-02 1.135284128054022193e-02 1.028318163711203562e-02 9.328303574312895446e-03 8.404792022056843670e-03 7.582598292515050666e-03 6.788857594067890938e-03 6.082805558116818542e-03 5.401773592762191233e-03 4.794925705819535859e-03 4.209375152503361944e-03 3.684802092155992515e-03 3.177666348424483707e-03 2.718679580400721729e-03 2.273226703259603916e-03 1.863479009798063753e-03 1.463368620744289134e-03 1.086854978557615743e-03 7.161077772867169853e-04 3.570943419732917727e-04 0.000000000000000000e+00
0.000000000000000000e+00 3.350604588418103387e-04 6.720676188403112853e-04 1.020548854311953673e-03 1.374889985840492372e-03 1.752337307902691052e-03 2.139613730202926181e-03 2.561932936838814696e-03 2.998132332858166084e-03 3.481738428241966041e-03 3.983365519860137573e-03 4.545276965576527592e-03 5.129420727652606558e-03 5.787276057157784634e-03 6.471588327878141644e-03 7.243557988701515918e-03 8.046113522144158342e-03 8.950674182366141762e-03 9.889675513176024793e-03 1.094520637955349179e-02 1.203848793231020696e-02 1.326263851546164926e-02 1.452691293267152628e-02 1.593567908260299162e-02 1.738545501097310889e-02 1.899188567904665226e-02 2.063797176250562609e-02 2.245041546431529589e-02 2.429791430532596969e-02 2.631770817105175131e-02 2.836340612572972250e-02 3.058192539576863253e-02 3.281101821319676315e-02 3.520606560601262369e-02 3.758825952614047033e-02 4.011992431903966400e-02 4.260516850518424048e-02 4.521158304688377427e-02 4.772608382274157179e-02 5.032000646551115786e-02 5.276378175562597417e-02 5.523163050881894909e-02 5.747959763173632330e-02 5.968524339987858057e-02 6.159432768281328935e-02 6.339006497722175781e-02 6.481430319938412399e-02 6.606003465135106001e-02 6.687321107131191655e-02 6.746135782461167019e-02 6.758232744570033534e-02 6.746130592938309745e-02 6.687310629971615628e-02 6.605987113376093900e-02 6.481407787678174215e-02 6.338976542647427326e-02 6.159394841107095758e-02 5.968476400955886191e-02 5.747900957215476558e-02 5.523090314212376201e-02 5.276290253423775167e-02 5.031893123547100111e-02 4.772479471798113382e-02 4.521001788535483623e-02 4.260330230883520308e-02 4.011767083841795423e-02 3.758558429309477589e-02 3.520285037698722697e-02 3.280721592990813729e-02 3.057737557495686376e-02 2.835804513456791423e-02 2.631132021880070240e-02 2.429041412868026759e-02 2.244151550344556170e-02 2.062755878645592886e-02 1.897957987191496720e-02 1.737110732784136885e-02 1.591879226302958528e-02 1.450729252357986498e-02 1.323963922497923586e-02 1.201185831861676517e-02 1.091411645007912996e-02 9.853803047747961355e-03 8.908961110417069548e-03 7.998150660754797109e-03 7.188008594488790731e-03 6.407937554336641528e-03 5.713850353519399870e-03 5.045578343303776248e-03 4.448941817382420089e-03 3.873745290441947021e-03 3.356281504591593357e-03 2.855870055880902272e-03 2.399758688550921240e-03 1.956355186810333161e-03 1.544248284229167347e-03 1.140566515908318646e-03 7.555176495565845557e-04 3.746657527027830691e-04 0.000000000000000000e+00
0.000000000000000000e+00 3.504576789413549418e-04 7.069417770932105195e-04 1.067652864436920363e-03 1.446532067294084740e-03 1.833917972939715568e-03 2.251874562428164868e-03 2.682716540259847630e-03 3.156947345908424091e-03 3.648573989764120062e-03 4.196948323053828304e-03 4.767372006991790583e-03 5.408525131468695270e-03 6.076504207186221238e-03 6.829841343392773975e-03 7.614840483356286743e-03 8.500421051782929699e-03 9.422435688882820418e-03 1.046069988781163362e-02 1.153990160595711433e-02 1.275119078901083662e-02 1.400733800750770738e-02 1.541114590603372483e-02 1.686268758728109302e-02 1.847656070906518455e-02 2.013933996536019372e-02 2.197732297283608305e-02 2.386276384580708274e-02 2.593326240819428599e-02 2.804590208926147424e-02 3.034882028459787509e-02 3.268304400327742831e-02 3.520606560601262369e-02 3.774194068143583991e-02 4.045590294892158212e-02 4.315414494843718834e-02 4.600766832985048183e-02 4.880409085725089663e-02 5.171807770099007273e-02 5.451848442605658485e-02 5.738188195799669156e-02 6.005931587406503069e-02 6.272863256914244789e-02 6.512603700457569866e-02 6.743211598108209137e-02 6.937408555029735135e-02 7.113950855004372298e-02 7.245550014833855579e-02 7.352311024798213746e-02 7.407980060115795795e-02 7.434650748987159385e-02 7.407974711651603428e-02 7.352300027201701116e-02 7.245533159896612452e-02 7.113927205487854954e-02 6.937377670023994747e-02 6.743171795337199459e-02 6.512554255383150303e-02 6.272801552151850701e-02 6.005856533491893412e-02 5.738095954364007267e-02 5.451737441546163077e-02 5.171672548007061332e-02 4.880247425435684655e-02 4.600571104843008408e-02 4.315181618767233163e-02 4.045309750615395938e-02 3.773861626074090370e-02 3.520207868929808859e-02 3.267833708592106368e-02 3.034319944790137349e-02 2.803928987072046991e-02 2.592539916226688224e-02 2.385354615249555416e-02 2.196640625757638465e-02 2.012658736156527906e-02 1.846151894194099363e-02 1.684517710700932092e-02 1.539057566522191584e-02 1.398347452036277638e-02 1.272327011942082746e-02 1.150762279683976118e-02 1.042308424095429037e-02 9.379098711108672590e-03 8.450120019500571497e-03 7.557088568795833350e-03 6.763074657521363740e-03 6.000111923674989606e-03 5.320556916128026462e-03 4.667068483280594274e-03 4.081899344737972488e-03 3.517844323619039124e-03 3.007586050848593592e-03 2.513582808252845177e-03 2.059389062923066942e-03 1.616702813453727797e-03 1.200286981543948828e-03 7.907305523285196314e-04 3.942259861021707858e-04 0.000000000000000000e+00
0.000000000000000000e+00 3.676563077927132508e-04 7.375889461542554882e-04 1.120196578634075285e-03 1.509667445959211093e-03 1.924683782665076361e-03 2.351250006310169442e-03 2.816611965846883489e-03 3.298366520751563891e-03 3.832708413047493552e-03 4.388481775599263265e-03 5.011301683826002024e-03 5.660803584044163568e-03 6.392555809786399680e-03 7.156432355150443674e-03 8.018518827454032896e-03 8.918294512748448089e-03 9.932921118748619382e-03 1.099078674323057322e-02 1.218064037759413257e-02 1.341903561026831261e-02 1.480672315964217702e-02 1.624764509667456572e-02 1.785481515174519931e-02 1.951876027264634259e-02 2.136480079610048044e-02 2.326921631767144005e-02 2.536938657783190804e-02 2.752646939238262078e-02 2.988928534304322732e-02 3.230292892012288225e-02 3.492658918648439137e-02 3.758825952614047727e-02 4.045590294892157518e-02 4.333926663967280907e-02 4.641295330564364219e-02 4.946726900852958797e-02 5.268088821624337947e-02 5.582365169791124460e-02 5.907565497055172754e-02 6.218594577623917652e-02 6.533405650057610980e-02 6.824957976619272504e-02 7.111139554098536153e-02 7.363401368664200530e-02 7.599891788325359443e-02 7.791414530215484691e-02 7.957110833399774763e-02 8.068392917112011953e-02 8.146377892290036782e-02 8.164415479611206172e-02 8.146372290881728762e-02 8.068381607286971569e-02 7.957093182410777954e-02 7.791390204352635629e-02 7.599859448220824820e-02 7.363360414834556333e-02 7.111087787033842922e-02 6.824894462516882532e-02 6.533327084385230632e-02 6.218499588994197413e-02 5.907449321722590962e-02 5.582225853248282826e-02 5.267919652803079028e-02 4.946525144285594811e-02 4.641051674097344815e-02 4.333637328310781245e-02 4.045242508076628274e-02 3.758414548062227051e-02 3.492166553642772620e-02 3.229712570039605657e-02 2.988236923504721670e-02 2.751834649717124770e-02 2.535974579654420163e-02 2.325793272978876614e-02 2.135146322870481311e-02 1.950320397134799877e-02 1.783650141578674644e-02 1.622635850993570453e-02 1.478176409325303309e-02 1.339012484186400537e-02 1.214687721927112767e-02 1.095181240812076462e-02 9.887586262105464360e-03 8.866142137342979471e-03 7.958095237058196089e-03 7.087160583277990478e-03 6.312613565345774440e-03 5.569468914252748322e-03 4.906310721689483012e-03 4.268939281610309097e-03 3.695827397139971136e-03 3.143047015641587359e-03 2.639454385594675392e-03 2.150915443175362499e-03 1.697063883765624224e-03 1.253148044485229238e-03 8.298596253984426253e-04 4.115076393773804426e-04 0.000000000000000000e+00
0.000000000000000000e+00 3.825786060752425733e-04 7.717785098840861070e-04 1.165877057985914306e-03 1.579947895644102235e-03 2.003899705451209993e-03 2.461494636859816888e-03 2.934114796065952560e-03 3.454563944068422734e-03 3.995411366075026123e-03 4.598956083664254742e-03 5.228549368668790678e-03 5.936517578071603268e-03 6.676483092764771976e-03 7.511382167688226627e-03 8.384507958560953947e-03 9.370005729967432681e-03 1.040016753013263406e-02 1.156092303242650145e-02 1.277283755092053184e-02 1.413412968897549520e-02 1.555287392411812755e-02 1.713995638465513546e-02 1.879016765037880288e-02 2.062724960826538972e-02 2.253188662872393500e-02 2.464059839649642911e-02 2.681909675546648164e-02 2.921624576227146303e-02 3.168184097040593200e-02 3.437619881602899108e-02 3.713212429639677070e-02 4.011992431903967093e-02 4.315414494843718834e-02 4.641295330564364219e-02 4.969113262593496949e-02 5.317188125498308743e-02 5.662854130128179564e-02 6.024596996110255509e-02 6.377453798199987645e-02 6.739739347461137786e-02 7.084138458580754860e-02 7.428579433508480934e-02 7.743595170653101711e-02 8.046831363957859806e-02 8.307342699392016028e-02 8.543133603913846685e-02 8.723085871437746830e-02 8.866785990464658151e-02 8.944723112321131819e-02 8.979471381941345198e-02 8.944717364977133878e-02 8.866774173098478096e-02 8.723067758106890779e-02 8.543108188697083605e-02 8.307309503672116735e-02 8.046788581923444705e-02 7.743542015400778356e-02 7.428513094881983303e-02 7.084057752537950559e-02 6.739640151881748364e-02 6.377334403101721227e-02 6.024451534572326794e-02 5.662680188242753127e-02 5.316977504261855697e-02 4.968862605025769347e-02 4.640993326940413832e-02 4.315056529859413736e-02 4.011563070076261395e-02 3.712705387877150015e-02 3.437014293775565027e-02 3.167471487190108570e-02 2.920776990984399676e-02 2.680915780672124549e-02 2.462882516454766024e-02 2.251812885211720155e-02 2.061101868482097255e-02 1.877126607485396503e-02 1.711774657984669462e-02 1.552709850084964087e-02 1.410396389964159100e-02 1.273794883025998123e-02 1.152025381107721694e-02 1.035329179184944076e-02 9.315579225420637932e-03 8.321989658815979324e-03 7.439078461830500935e-03 6.593712840177370221e-03 5.841165897156638635e-03 5.119766207614281223e-03 4.474124052826459683e-03 3.853478967688948962e-03 3.292321019517915458e-03 2.750272275308906535e-03 2.252151129724763896e-03 1.767489233948177363e-03 1.311772632196002691e-03 8.640522654026415146e-04 4.307001943564489101e-04 0.000000000000000000e+00
0.000000000000000000e+00 3.992288091428593841e-04 8.010694293209318431e-04 1.216765443884216787e-03 1.640347373180074632e-03 2.091876140507351739e-03 2.556714039611935121e-03 3.064052133008322073e-03 3.590363093381149229e-03 4.174394626063050034e-03 4.783381824313938033e-03 5.466149940838053306e-03 6.180234266808688585e-03 6.985127732444051420e-03 7.828105264276739514e-03 8.779955634071639689e-03 9.777052918427696360e-03 1.090211044103211145e-02 1.207990030542226492e-02 1.340564531068023577e-02 1.479177167059501224e-02 1.634650059631479954e-02 1.796913886744905264e-02 1.978123722652889993e-02 2.166818388131248538e-02 2.376495813301096605e-02 2.594219388412385974e-02 2.834807516415405182e-02 3.083757593083081422e-02 3.357142611414221794e-02 3.638790107719037936e-02 3.945904572028244295e-02 4.260516850518424048e-02 4.600766832985048183e-02 4.946726900852959491e-02 5.317188125498309437e-02 5.690058208418601049e-02 6.084401018515445125e-02 6.475714886321727592e-02 6.882886519543618409e-02 7.278770555439892376e-02 7.681642692861417876e-02 8.061626128180800210e-02 8.436168793306224323e-02 8.772986217122123731e-02 9.089028336319371348e-02 9.350691314610136418e-02 9.575626759311764435e-02 9.730942060987742004e-02 9.836975162775617176e-02 9.864029570855908924e-02 9.836969171053723537e-02 9.730929962022916158e-02 9.575607877017619507e-02 9.350665288656695440e-02 9.088993735454047040e-02 8.772942393786326010e-02 8.436113396711140966e-02 8.061558149072318991e-02 7.681558598654976422e-02 7.278668862893127034e-02 6.882762134799706721e-02 6.475565693696552771e-02 6.084219839666436813e-02 5.689842079493306892e-02 5.316927082471479410e-02 4.946416844565690307e-02 4.600394092049178013e-02 4.260075814506257552e-02 3.945376668850704427e-02 3.638167729995395866e-02 3.356400761315516540e-02 3.082886046358240123e-02 2.833772924019714590e-02 2.593008126956341738e-02 2.375063779889666563e-02 2.165147584096472483e-02 1.976156328158944903e-02 1.794626323374746979e-02 1.631967179478535993e-02 1.476068342559273133e-02 1.336932938535910324e-02 1.203796221407867767e-02 1.085331349641107182e-02 9.720893313674148703e-03 8.714867567059197614e-03 7.753450765050663718e-03 6.898941655972849404e-03 6.081715626582154775e-03 5.352854113897370474e-03 4.654311754392299882e-03 4.026536170516954553e-03 3.422485819432218544e-03 2.872472878778328798e-03 2.339927566466609189e-03 1.845422319953228182e-03 1.362400984947962973e-03 9.019746860266229273e-04 4.472408726457737915e-04 0.000000000000000000e+00
0.000000000000000000e+00 4.132672011752631198e-04 8.337319993347999062e-04 1.259767915049946367e-03 1.707525733524381745e-03 2.166543443786186993e-03 2.662189971850616177e-03 3.175016602974251381e-03 3.740000734684483224e-03 4.328422220482085019e-03 4.985366344986907720e-03 5.672434303560793326e-03 6.445405579357375847e-03 7.255688305926006471e-03 8.170401200543710857e-03 9.130156395021167201e-03 1.021408125756304366e-02 1.135132101014584699e-02 1.263366453314251035e-02 1.397807171578313926e-02 1.548958085322484426e-02 1.707221792309700573e-02 1.884473605139248484e-02 2.069745850697525189e-02 2.276312658795077298e-02 2.491756813788357713e-02 2.730750739608646047e-02 2.979343408619505515e-02 3.253566079670164313e-02 3.537838647814174620e-02 3.849458313130638132e-02 4.171098900235836737e-02 4.521158304688377427e-02 4.880409085725090357e-02 5.268088821624339335e-02 5.662854130128179564e-02 6.084401018515445125e-02 6.508976849193270908e-02 6.956221965544782948e-02 7.399606838212863247e-02 7.858101971883255099e-02 8.302035629244228221e-02 8.749139100981029316e-02 9.166467657268871638e-02 9.570336264044773666e-02 9.925093114153205054e-02 1.024641620926918656e-01 1.049778779021143110e-01 1.069644143370300643e-01 1.080820590693768735e-01 1.085497218577458345e-01 1.080819978635893380e-01 1.069642884929517118e-01 1.049776849928397704e-01 1.024638914169901938e-01 9.925057755701052753e-02 9.570290693401653503e-02 9.166411028585141896e-02 8.749068423822743690e-02 8.301949630116511880e-02 7.857996263214424293e-02 7.399479579507424465e-02 6.956066910368274847e-02 6.508791397233133769e-02 6.084176437672801641e-02 5.662586800801151093e-02 5.267766694505907760e-02 4.880027179265352538e-02 4.520700167592742874e-02 4.170557743024016356e-02 3.848811886816675548e-02 3.537077781718321601e-02 3.252660953530434051e-02 2.978281742092151255e-02 2.729492913841181229e-02 2.490286523294131527e-02 2.274577721338287215e-02 2.067724797679164339e-02 1.882098298807036163e-02 1.704464201895159597e-02 1.545730004858276475e-02 1.394072307150502621e-02 1.259011604753994436e-02 1.130110666604201668e-02 1.015576084725829109e-02 9.063136530696000448e-03 8.092865448885605203e-03 7.166887392081209771e-03 6.343068514014574277e-03 5.555622867000746881e-03 4.851266080060782568e-03 4.175868140554350391e-03 3.565535533357090583e-03 2.977205853905579187e-03 2.436824268090098059e-03 1.911871494450163205e-03 1.418468106916693800e-03 9.342046211101134303e-04 4.655888900920863690e-04 0.000000000000000000e+00
0.000000000000000000e+00 4.289409866045497356e-04 8.608234517930581867e-04 1.307687699239868349e-03 1.763444202081318121e-03 2.249442475183892169e-03 2.750485801030091645e-03 3.297578619259505881e-03 3.866201021900448134e-03 4.497480290316871986e-03 5.157227031590815372e-03 5.897262447942074395e-03 6.673265441134015007e-03 7.548400395850769079e-03 8.467654836950928507e-03 9.506232780777626457e-03 1.059779470665746584e-02 1.183029064399807734e-02 1.312536510121879024e-02 1.458438630800405061e-02 1.611626210342422677e-02 1.783636460457625056e-02 1.964012890804863604e-02 2.165736717012819307e-02 2.376929582563176713e-02 2.612037528251835369e-02 2.857683347614334984e-02 3.129765761230577509e-02 3.413324669163897429e-02 3.725652577010950262e-02 4.050105596753501846e-02 4.405245116256387150e-02 4.772608382274157179e-02 5.171807770099008661e-02 5.582365169791125847e-02 6.024596996110255509e-02 6.475714886321727592e-02 6.956221965544782948e-02 7.440589288451268657e-02 7.948792448222616325e-02 8.451994864636036553e-02 8.968780800410353082e-02 9.466426989230211642e-02 9.961361857054767954e-02 1.041679806763489424e-01 1.084697083435621212e-01 1.121209261810197366e-01 1.152589156054895092e-01 1.174882997667516388e-01 1.189808729242006063e-01 1.193945347894579956e-01 1.189808094056144933e-01 1.174881714951485912e-01 1.152587154204911812e-01 1.121206502315434811e-01 1.084693414699444414e-01 1.041675159553409613e-01 9.961303109923393129e-02 9.466354887517000605e-02 8.968691601170211691e-02 8.451886980340632405e-02 7.948660480405451978e-02 7.440430971035988383e-02 6.956029688834083902e-02 6.475485473163612726e-02 6.024319880434358954e-02 5.582035953391436406e-02 5.171411950476712677e-02 4.772139933575344356e-02 4.404684329713085683e-02 4.049444292528968370e-02 3.724864215896105113e-02 3.412398243953025656e-02 3.128665849635804685e-02 2.856395263022100395e-02 2.610514401084945701e-02 2.375151980283379816e-02 2.163643156211440474e-02 1.961577872279072696e-02 1.780780021883716577e-02 1.608315167828170550e-02 1.454569881062633963e-02 1.308067223853405861e-02 1.177827442134597030e-02 1.053790687862099854e-02 9.436803023277311187e-03 8.387987107714546878e-03 7.456396122647049318e-03 6.568048170394181345e-03 5.776218382349508455e-03 5.019261558295734851e-03 4.339366164406261057e-03 3.686582319536215509e-03 3.092505410399373506e-03 2.518292157538040438e-03 1.985336279922238906e-03 1.465395327158535051e-03 9.699334469352690388e-04 4.809100666124582540e-04 0.000000000000000000e+00
0.000000000000000000e+00 4.416732934498775816e-04 8.910845739915365877e-04 1.346715228035150506e-03 1.825709960413534087e-03 2.317296453837971483e-03 2.848319597630892888e-03 3.398611051133232797e-03 4.005142883458864822e-03 4.638070887294139417e-03 5.345039061912059027e-03 6.086123015482673877e-03 6.920279497935442545e-03 7.796992999392127199e-03 8.787242349670461652e-03 9.829325184480946012e-03 1.100698675700047258e-02 1.224668175797020281e-02 1.364566148876930791e-02 1.511784631159004619e-02 1.677468167415674047e-02 1.851684948373513717e-02 2.047057015672485922e-02 2.252258543985710335e-02 2.481429582674882922e-02 2.721780369041472414e-02 2.988983082009117123e-02 3.268711619524571066e-02 3.578145971058652175e-02 3.901341394312227845e-02 4.256905503338392210e-02 4.627167585762050755e-02 5.032000646551116479e-02 5.451848442605659872e-02 5.907565497055172754e-02 6.377453798199987645e-02 6.882886519543618409e-02 7.399606838212863247e-02 7.948792448222616325e-02 8.502978801590296842e-02 9.082126553065394958e-02 9.654665718530931751e-02 1.023807870984198010e-01 1.079575471408508736e-01 1.134164485126364086e-01 1.183389953753477275e-01 1.228328775377102167e-01 1.264485585720723781e-01 1.292975022336962376e-01 1.309585980712159314e-01 1.316174377766173020e-01 1.309585334742620621e-01 1.292973694205435398e-01 1.264483549624328407e-01 1.228325918475169504e-01 1.183386221358827817e-01 1.134159674621286196e-01 1.079569492805733250e-01 1.023800408867803907e-01 9.654574906706700488e-02 9.082014921857767265e-02 8.502844390737762659e-02 7.948628666394522146e-02 7.399410913903603504e-02 6.882649235984689140e-02 6.377171294381236977e-02 5.907225050954730688e-02 5.451444735674716713e-02 5.031516303038441329e-02 4.626595349724012263e-02 4.256221866555021105e-02 3.900536545384104825e-02 3.577188388601350300e-02 3.267588149475943171e-02 2.987651825667670194e-02 2.720223837740171069e-02 2.479592562375742409e-02 2.250117974604144699e-02 2.044540758317965265e-02 1.848762845532463117e-02 1.674046772131373290e-02 1.507824825418456818e-02 1.359947917724870295e-02 1.219341190218680565e-02 1.094510117201286103e-02 9.758181576077697150e-03 8.704911500320957479e-03 7.702661820398257544e-03 6.811533391292272713e-03 5.961940933707371611e-03 5.202424879778387058e-03 4.475752639238742177e-03 3.819434875384958988e-03 3.187941310617658890e-03 2.608193276505381929e-03 2.045786140542217579e-03 1.517381417324435797e-03 9.992237728599694200e-04 4.979172189173879711e-04 0.000000000000000000e+00
0.000000000000000000e+00 4.559369946542027449e-04 9.151263226880596967e-04 1.390333972123461046e-03 1.875383957699696237e-03 2.392790529022361615e-03 2.926885084522276928e-03 3.510307615277702756e-03 4.117688573507640240e-03 4.792301634631464247e-03 5.498735313280607440e-03 6.291517046627875115e-03 7.124736535732954096e-03 8.064883077137451062e-03 9.054996377857844891e-03 1.017429392702158715e-02 1.135414537889327738e-02 1.268728551867899859e-02 1.409275278429819242e-02 1.567756963814238499e-02 1.734776879787755174e-02 1.922536346588837181e-02 2.120271679525855685e-02 2.341741024783637604e-02 2.574749835109172574e-02 2.834650967138808292e-02 3.107756991856090029e-02 3.411023655692279472e-02 3.729206201233912360e-02 4.080827436360210531e-02 4.449007436525788395e-02 4.853733968808821020e-02 5.276378175562596029e-02 5.738188195799669156e-02 6.218594577623917652e-02 6.739739347461137786e-02 7.278770555439893764e-02 7.858101971883255099e-02 8.451994864636036553e-02 9.082126553065394958e-02 9.718866827504317463e-02 1.038164204390350925e-01 1.103546741752168964e-01 1.169559152443655770e-01 1.232012708579980909e-01 1.291865789901188166e-01 1.344230300224009966e-01 1.389634436933201156e-01 1.422945525247449883e-01 1.445015713388352885e-01 1.451580847715331912e-01 1.445015046044711982e-01 1.422944177503306928e-01 1.389632333620121896e-01 1.344227400602087397e-01 1.291861934814350077e-01 1.232007824767174103e-01 1.169552978424841655e-01 1.103539163243112409e-01 1.038154828316733974e-01 9.718753409645976282e-02 9.081987807596025863e-02 8.451828389900736815e-02 7.857899772837567687e-02 7.278529262490306129e-02 6.739447856483880839e-02 6.218248220371534740e-02 5.737771726657220350e-02 5.275885193179691290e-02 4.853143747556567383e-02 4.448311278582997574e-02 4.079997422811913743e-02 3.728230615592326158e-02 3.409865218675116327e-02 3.106400052432465794e-02 2.833046175808524511e-02 2.572876456875273360e-02 2.339534289669125550e-02 2.117704340856180548e-02 1.919524119020249095e-02 1.731284249746403367e-02 1.563675183384160422e-02 1.404558431408937762e-02 1.263237521367342915e-02 1.129090433116594107e-02 1.010095761592156270e-02 8.970815497093330079e-03 7.967638617316547683e-03 7.013482640669280350e-03 6.163486935377798792e-03 5.352744387871699594e-03 4.624929533887388138e-03 3.927463232147219811e-03 3.293036757125436184e-03 2.680753497323612108e-03 2.112703628571023853e-03 1.559120428737021139e-03 1.031755488720465875e-03 5.115350361971243189e-04 0.000000000000000000e+00
0.000000000000000000e+00 4.669483624788737554e-04 9.421211768536669933e-04 1.424110380070937746e-03 1.930943260828146043e-03 2.451596620029501596e-03 3.014220988442244901e-03 3.598045751947660624e-03 4.241806210923790461e-03 4.914711764443469889e-03 5.666670203486155397e-03 6.456473322015265914e-03 7.345894628503955859e-03 8.282806395566874591e-03 9.341620391073841845e-03 1.045870876685428552e-02 1.172194195217623504e-02 1.305556215355432696e-02 1.456173009537284867e-02 1.615191065880374963e-02 1.794335560078371208e-02 1.983411878668224840e-02 2.195726395338015030e-02 2.419684040513811127e-02 2.670230614464794844e-02 2.934316672548498844e-02 3.228564211207526902e-02 3.538419810154546513e-02 3.882186213810461667e-02 4.243754713368912135e-02 4.643064309813434154e-02 5.062382677384847512e-02 5.523163050881894215e-02 6.005931587406501682e-02 6.533405650057610980e-02 7.084138458580756248e-02 7.681642692861419264e-02 8.302035629244228221e-02 8.968780800410353082e-02 9.654665718530930363e-02 1.038164204390350925e-01 1.111756821205709955e-01 1.188053995397707341e-01 1.263101688033964609e-01 1.338013185791254722e-01 1.407830197047284515e-01 1.472756254059111036e-01 1.526876336540621271e-01 1.569889405879535682e-01 1.595950499878471263e-01 1.605873688864403181e-01 1.595949824217588742e-01 1.569888016731564306e-01 1.526874206750764573e-01 1.472753265687239410e-01 1.407826292529311130e-01 1.338008153332836958e-01 1.263095432883347136e-01 1.188046187809032317e-01 1.111747318388555811e-01 1.038152522360318714e-01 9.654525040099624922e-02 8.968609370477523268e-02 8.301830525055622911e-02 7.681394273051633803e-02 7.083842648692441346e-02 6.533049138495569674e-02 6.005508757402936576e-02 5.522655716114751451e-02 5.061783168739568406e-02 4.642348014400618506e-02 4.242911251688227803e-02 3.881182571305973050e-02 3.537242057199728451e-02 3.227168446663716828e-02 2.932684356186186780e-02 2.668303867428982457e-02 2.417438386340902551e-02 2.193086175447889891e-02 1.980345039945949348e-02 1.790744040950989144e-02 1.611033226962843914e-02 1.451322829238039722e-02 1.299960030725158880e-02 1.165691424018395692e-02 1.038392905934928077e-02 9.255059804369207901e-03 8.183594511105321892e-03 7.231489741215497632e-03 6.325779779262845348e-03 5.516530791131315364e-03 4.743757876291889233e-03 4.046149203561350688e-03 3.375988988413252626e-03 2.761015338745081375e-03 2.165154447681243936e-03 1.605513326816419232e-03 1.057142717087748837e-03 5.267093599661209179e-04 0.000000000000000000e+00
0.000000000000000000e+00 4.793844074503359658e-04 9.622996421767965585e-04 1.462143654281896190e-03 1.972682085512448592e-03 2.517436982184084564e-03 3.080356497269540889e-03 3.695493354530025344e-03 4.336778753796391959e-03 5.049340796396921752e-03 5.796760414205280945e-03 6.635906618139878269e-03 7.519562260700728834e-03 8.517100897640166729e-03 9.569970024016364110e-03 1.076088173594831610e-02 1.201935150940305029e-02 1.344230201459360036e-02 1.494669478483512393e-02 1.664453652909682335e-02 1.843962415977129857e-02 2.045988226193781040e-02 2.259537982644168469e-02 2.499070673325400754e-02 2.752171909687697524e-02 3.035027683467012710e-02 3.333763370270973608e-02 3.666330709344969158e-02 4.017364130484476353e-02 4.406586869137122525e-02 4.817112411974187880e-02 5.270388995142892552e-02 5.747959763173633024e-02 6.272863256914243402e-02 6.824957976619269728e-02 7.428579433508480934e-02 8.061626128180800210e-02 8.749139100981027928e-02 9.466426989230211642e-02 1.023807870984198010e-01 1.103546741752168964e-01 1.188053995397707202e-01 1.273810730598985697e-01 1.362365737255517018e-01 1.449108149503788578e-01 1.534406721174043642e-01 1.612088182424527560e-01 1.681038767177719939e-01 1.733785261851600312e-01 1.768883415125273861e-01 1.780013583646220532e-01 1.768882720261936714e-01 1.733783858454597537e-01 1.681036577030000367e-01 1.612085162866795374e-01 1.534402706584482579e-01 1.449103063151515602e-01 1.362359307009293197e-01 1.273802836721113774e-01 1.188044228745115671e-01 1.103534926078159201e-01 1.023793415958480640e-01 9.466253526854105649e-02 8.748928401536065769e-02 8.061374655968162051e-02 7.428275623602360878e-02 6.824596927515363953e-02 6.272429086324117498e-02 5.747445745136811612e-02 5.269773532437643793e-02 4.816386358591678157e-02 4.405721122974042003e-02 4.016346360743609095e-02 3.665122043363361337e-02 3.332347320836487325e-02 3.033352771867614539e-02 2.750216270313567135e-02 2.496766712425855725e-02 2.256856934648526769e-02 2.042842088510654283e-02 1.840313647148760293e-02 1.660188646944618998e-02 1.489739627855219198e-02 1.338490084983328179e-02 1.195322326296901355e-02 1.068418063615902275e-02 9.481900149928895391e-03 8.415339212575008790e-03 7.403102033824542072e-03 6.501848720601827517e-03 5.643841121098827282e-03 4.873972373032239500e-03 4.137386717393043249e-03 3.467674938549917922e-03 2.822164421562216828e-03 2.223513295127644424e-03 1.640635713759662365e-03 1.085508234867628386e-03 5.381596865796107326e-04 0.000000000000000000e+00
0.000000000000000000e+00 4.882896251456735493e-04 9.852185968278182309e-04 1.489482509367401428e-03 2.019852977401802654e-03 2.565112725924846310e-03 3.154509979286119863e-03 3.766792415106507037e-03 4.442177032457216880e-03 5.149112253142542478e-03 5.939409938265334012e-03 6.770830475638237381e-03 7.707521217816185391e-03 8.696064910276694176e-03 9.813775260536576964e-03 1.099549664351956793e-02 1.233260165764001048e-02 1.374759961058189851e-02 1.534684413087442946e-02 1.703991651297712823e-02 1.894906825651310883e-02 2.097040627485600647e-02 2.324295401435871530e-02 2.564888760455926592e-02 2.834479282513462789e-02 3.119858781360879477e-02 3.438507931022911912e-02 3.775775526469880850e-02 4.151010492784019956e-02 4.548116220720912345e-02 4.988325620963460216e-02 5.454101128038902485e-02 5.968524339987858057e-02 6.512603700457569866e-02 7.111139554098536153e-02 7.743595170653103099e-02 8.436168793306225711e-02 9.166467657268873026e-02 9.961361857054766566e-02 1.079575471408508736e-01 1.169559152443655770e-01 1.263101688033964609e-01 1.362365737255517018e-01 1.463442380885329741e-01 1.567402653014977609e-01 1.668600355720573358e-01 1.766023082857303417e-01 1.851405287894131169e-01 1.921272487630866499e-01 1.965784315124803616e-01 1.982381338778728130e-01 1.965783614729340045e-01 1.921271047653562714e-01 1.851403080047843708e-01 1.766019984956131439e-01 1.668596307790308209e-01 1.567397435619983237e-01 1.463435895281196275e-01 1.362357641761957061e-01 1.263091833792634178e-01 1.169547037883539309e-01 1.079560881060390304e-01 9.961184050655486066e-02 9.166254898266373852e-02 8.435911086444752849e-02 7.743288262233476160e-02 7.110769640966140004e-02 6.512164915241358543e-02 5.967997820292562927e-02 5.453478857282517689e-02 4.987582064492617623e-02 4.547240520872652264e-02 4.149968388468106700e-02 3.774552434673619783e-02 3.437058278030089009e-02 3.118163140134216221e-02 2.832477547008518254e-02 2.562555258400427138e-02 2.321551530568105939e-02 2.093852732299381417e-02 1.891172982160146260e-02 1.699668085811652934e-02 1.529640072043845535e-02 1.368938355056033285e-02 1.226494202027523725e-02 1.091767007238890301e-02 9.723669196584098715e-03 8.592760155441277539e-03 7.588369210371086193e-03 6.634671948221094497e-03 5.782952041581788417e-03 4.970903777345194764e-03 4.238158143439755415e-03 3.535159626831157684e-03 2.890299216623943863e-03 2.266098597507453481e-03 1.680015613988268628e-03 1.106094822043492045e-03 5.510397759966925973e-04 0.000000000000000000e+00
0.000000000000000000e+00 4.985193922887614813e-04 1.000802610621400954e-03 1.520764632341126046e-03 2.052134588802514287e-03 2.619254773510558236e-03 3.205778278843584780e-03 3.846906128935749861e-03 4.516024707783425178e-03 5.259769924354612894e-03 6.040936610075276977e-03 6.918300342842693962e-03 7.843627224649081173e-03 8.888644823928882818e-03 9.993569464333679903e-03 1.124397530282262095e-02 1.256795886705552347e-02 1.406588937698288050e-02 1.565316561510356544e-02 1.744592391072778692e-02 1.934632607844799512e-02 2.148724031314457050e-02 2.375714235157790066e-02 2.630655948474440800e-02 2.900997678549348952e-02 3.203644104588761893e-02 3.524634045989911979e-02 3.882800421624126030e-02 4.262786093460808889e-02 4.685414627327537385e-02 5.133972723119837461e-02 5.631315241769823537e-02 6.159432768281328241e-02 6.743211598108209137e-02 7.363401368664200530e-02 8.046831363957861194e-02 8.772986217122125119e-02 9.570336264044775054e-02 1.041679806763489563e-01 1.134164485126364225e-01 1.232012708579980909e-01 1.338013185791254722e-01 1.449108149503788578e-01 1.567402653014977887e-01 1.688459725950219870e-01 1.812476487488061394e-01 1.931998505389981580e-01 2.043289696089573837e-01 2.134115085652930899e-01 2.196651126853296221e-01 2.217943841614549161e-01 2.196650409801729764e-01 2.134113637382469286e-01 2.043287435926374740e-01 1.931995389119577911e-01 1.812472344277664127e-01 1.688454476256912307e-01 1.567396016122230007e-01 1.449100001252883740e-01 1.338003104084824479e-01 1.232000510602973692e-01 1.134149561775523729e-01 1.041661896689756173e-01 9.570118705043162421e-02 8.772726529310997945e-02 8.046517610645853580e-02 7.363028458874361359e-02 6.742763135732572632e-02 6.158901763509562477e-02 5.630679393718809878e-02 5.133222521223621687e-02 4.684520013875995148e-02 4.261734237582544965e-02 3.881551163172292096e-02 3.523170216476032707e-02 3.201912503975978125e-02 2.898975519185862867e-02 2.628273352461618292e-02 2.372941196924088086e-02 2.145469539424898348e-02 1.930857463380790395e-02 1.740179052857204062e-02 1.560214219452476549e-02 1.400647059608110985e-02 1.249949119518269786e-02 1.116454703242405685e-02 9.902346408577317183e-03 8.783219432318736461e-03 7.722942703997434134e-03 6.779349902432051447e-03 5.882391319662039729e-03 5.077905688952925704e-03 4.309182452189625964e-03 3.610511295624454445e-03 2.937774220594946591e-03 2.314068146190830129e-03 1.707233322642466621e-03 1.129413425597351967e-03 5.599045953636673945e-04 0.000000000000000000e+00
0.000000000000000000e+00 5.049853333879715305e-04 1.018937241967596274e-03 1.540638820573187080e-03 2.089443610665724441e-03 2.653993500471287566e-03 3.264392847349591176e-03 3.899029114009482447e-03 4.599274594956605233e-03 5.333006126417206075e-03 6.153521456301207226e-03 7.017807061008180317e-03 7.991866029619390521e-03 9.021317696456074287e-03 1.018575045115425320e-02 1.141887623638170729e-02 1.281482336533058992e-02 1.429483341519053631e-02 1.596857693210841991e-02 1.774428743638245889e-02 1.974820113841031094e-02 2.187508654769638322e-02 2.426876641194411488e-02 2.681023119734696897e-02 2.966189061478219369e-02 3.269085912454908205e-02 3.607910425093931867e-02 3.968006020575901016e-02 4.369619495603634801e-02 4.796783472008589455e-02 5.271887061806018043e-02 5.777754347639225962e-02 6.339006497722174394e-02 6.937408555029735135e-02 7.599891788325359443e-02 8.307342699392017416e-02 9.089028336319371348e-02 9.925093114153205054e-02 1.084697083435621351e-01 1.183389953753477414e-01 1.291865789901188166e-01 1.407830197047284515e-01 1.534406721174043642e-01 1.668600355720573636e-01 1.812476487488061672e-01 1.960847362891470491e-01 2.112243835444589379e-01 2.255639905421251701e-01 2.381359060324155785e-01 2.468761265020901208e-01 2.502228995470247019e-01 2.468760545480560009e-01 2.381357581004810431e-01 2.255637637155608055e-01 2.112240652761875892e-01 1.960843203943858915e-01 1.812471126927444054e-01 1.668593691697927150e-01 1.534398402773548553e-01 1.407820070690806724e-01 1.291853340405886841e-01 1.183374958748974887e-01 1.084678808935398836e-01 9.924874425697716163e-02 9.088763435128292822e-02 8.307027192164580243e-02 7.599511491178410905e-02 6.936957405305008151e-02 6.338465109227262029e-02 5.777114432859537657e-02 5.271122371698731823e-02 4.795882775825162370e-02 4.368547565794946019e-02 3.966747763956969541e-02 3.606418970620754727e-02 3.267341140107800357e-02 2.964129136875369441e-02 2.678621435336093690e-02 2.424052309152687976e-02 2.184226765095332451e-02 1.970975741777322710e-02 1.769976442783897583e-02 1.591662497839529261e-02 1.423486544405664495e-02 1.274511779137665717e-02 1.133868045354730764e-02 1.009288673342009432e-02 8.914828461258919590e-03 7.869019405506565493e-03 6.877393637847636562e-03 5.992142506872142130e-03 5.149145206614844095e-03 4.388738044183521092e-03 3.659928882882087543e-03 2.991596544296972957e-03 2.345166444018454907e-03 1.738355155333151311e-03 1.144420962339782240e-03 5.700861808812540156e-04 0.000000000000000000e+00
0.000000000000000000e+00 5.126912745122539803e-04 1.029322203287825425e-03 1.564191496509165311e-03 2.111007532815907094e-03 2.694719011447737223e-03 3.298770496074009476e-03 3.959211130171340527e-03 4.649038431616306366e-03 5.416002322462100046e-03 6.222336027704168139e-03 7.128225431396901027e-03 8.084712136364228044e-03 9.165268469123575776e-03 1.030923840744554960e-02 1.160432361808379220e-02 1.297762494269459610e-02 1.453208413814885067e-02 1.618202126175712074e-02 1.804667276494449635e-02 2.002710449111439958e-02 2.225992570897154105e-02 2.463260555115519973e-02 2.730021533135033179e-02 3.013649535173924116e-02 3.331608069862215804e-02 3.669915721355006266e-02 4.048106125421310764e-02 4.450902396369239844e-02 4.900031201405589953e-02 5.379037704456418600e-02 5.911983697667756027e-02 6.481430319938411011e-02 7.113950855004372298e-02 7.791414530215484691e-02 8.543133603913846685e-02 9.350691314610137805e-02 1.024641620926918795e-01 1.121209261810197644e-01 1.228328775377102167e-01 1.344230300224009966e-01 1.472756254059110759e-01 1.612088182424527560e-01 1.766023082857303694e-01 1.931998505389981857e-01 2.112243835444589379e-01 2.300489568075654301e-01 2.491815901565053726e-01 2.666919985201539056e-01 2.801004146572838027e-01 2.853450329764977700e-01 2.801003413239049888e-01 2.666918504000604928e-01 2.491813590020947877e-01 2.300486380828459243e-01 2.112239597838764527e-01 1.931993135811078399e-01 1.766016294290032040e-01 1.612079847452576320e-01 1.472745941079698362e-01 1.344217821580792616e-01 1.228313508189651376e-01 1.121190937733092530e-01 1.024619361325364575e-01 9.350425593339878327e-02 8.542812547754466412e-02 7.791032908369692478e-02 7.113491894035962881e-02 6.480886835234939136e-02 5.911332871464163030e-02 5.378269756886606967e-02 4.899115372592446893e-02 4.449825485815109283e-02 4.046827026626566293e-02 3.668416761942216303e-02 3.329834784058349761e-02 3.011578452871720157e-02 2.727581096101482777e-02 2.460419839255236982e-02 2.222658350213001233e-02 1.998842295849271450e-02 1.800144751464088921e-02 1.612972784716078939e-02 1.447117957359697789e-02 1.290743407271997649e-02 1.152288610972464038e-02 1.021569161029682940e-02 9.057142453015303019e-03 7.960912818922272552e-03 6.985666477322280410e-03 6.059639863364049001e-03 5.229343987714472723e-03 4.436695635047528501e-03 3.716482068332503837e-03 3.023516629692403219e-03 2.381207199625775747e-03 1.756599892331902127e-03 1.161952826764472806e-03 5.760191658215665358e-04 0.000000000000000000e+00
0.000000000000000000e+00 5.164575613732189660e-04 1.042107896194577983e-03 1.575797429359741212e-03 2.137279435155680328e-03 2.715104516429743889e-03 3.339964109363060228e-03 3.990006478985563820e-03 4.707396012825531412e-03 5.459628704110720473e-03 6.301021757407102714e-03 7.188046500511026740e-03 8.187980991428403868e-03 9.245805636228451169e-03 1.044267493716093814e-02 1.171155488581332102e-02 1.314847684969126795e-02 1.467385693295314951e-02 1.639966604972276781e-02 1.823327787052400270e-02 2.030370860926786550e-02 2.250490624592017819e-02 2.498406999588379321e-02 2.762152922515990691e-02 3.058383971080506566e-02 3.373781110465025324e-02 3.727059479161876077e-02 4.103600363385097316e-02 4.524316142673964758e-02 4.973401232788113302e-02 5.474130961633685150e-02 6.009712418636968534e-02 6.606003465135107389e-02 7.245550014833855579e-02 7.957110833399774763e-02 8.723085871437746830e-02 9.575626759311764435e-02 1.049778779021143249e-01 1.152589156054895370e-01 1.264485585720723781e-01 1.389634436933201433e-01 1.526876336540621271e-01 1.681038767177720217e-01 1.851405287894131446e-01 2.043289696089574115e-01 2.255639905421251423e-01 2.491815901565053726e-01 2.744214147561770401e-01 2.999736455718585715e-01 3.214885006303933590e-01 3.315825357768072412e-01 3.214884273710057472e-01 2.999734949574939247e-01 2.744211838099119838e-01 2.491812661073605772e-01 2.255635670771661272e-01 2.043284237903425504e-01 1.851398502198545737e-01 1.681030296760754050e-01 1.526866024594617510e-01 1.389621758994608880e-01 1.264470314695745334e-01 1.152570544671504132e-01 1.049756505664606321e-01 9.575356949838674525e-02 8.722764497143713214e-02 7.956723450683834964e-02 7.245090427234210373e-02 6.605451929068270611e-02 6.009060460875569054e-02 5.473351845582270780e-02 4.972483471842908259e-02 4.523223849521593870e-02 4.102318094791970043e-02 3.725539478175311087e-02 3.372002781311663616e-02 3.056284298734997240e-02 2.759704656942879586e-02 2.495527691020221414e-02 2.247144500652163354e-02 2.026450945278366125e-02 1.818787482507108061e-02 1.634668269751500536e-02 1.461269093045050073e-02 1.307737193965837624e-02 1.162973830233444625e-02 1.034792432162376721e-02 9.137136921583195737e-03 8.062605203220593597e-03 7.044719589155165260e-03 6.136272357976297817e-03 5.271895245831468430e-03 4.492392926069964203e-03 3.745787125707996518e-03 3.061280358491244059e-03 2.399545832460343604e-03 1.778470024275120420e-03 1.170771286564639994e-03 5.831798025784954917e-04 0.000000000000000000e+00
